time (s)	magX	magY	magZ
1767.709758	-437.018127	-305.133850	578.164246
1767.713091	-435.732300	-307.179443	586.755676
1767.716422	-434.621826	-308.640564	594.879578
1767.719758	-433.920532	-311.095276	603.471069
1767.723096	-433.511414	-312.673279	612.296326
1767.726430	-432.810059	-314.777344	621.413757
1767.729753	-431.173584	-317.056702	631.057312
1767.733085	-429.712463	-318.225616	639.765625
1767.736425	-428.251282	-320.388092	649.759766
1767.739757	-426.497925	-322.725891	659.169434
1767.743084	-424.627686	-323.953247	668.871399
1767.746423	-423.809448	-325.589722	678.398010
1767.749754	-421.296326	-327.752197	688.158386
1767.753089	-419.192261	-329.271790	697.392700
1767.756428	-416.328491	-330.732910	707.912903
1767.759754	-413.055542	-331.901825	717.731750
1767.764384	-407.620117	-334.473419	737.778503
1767.767270	-404.873169	-335.817657	746.720642
1767.770600	-401.307983	-337.103455	756.831665
1767.773970	-398.268860	-338.272369	767.877869
1767.777296	-395.229675	-339.850403	777.345947
1767.780706	-391.021606	-340.551727	788.158386
1767.783536	-387.807129	-340.843964	797.801880
1767.786888	-383.189941	-341.837524	807.679077
1767.790169	-379.332520	-342.538879	818.433044
1767.793520	-375.182922	-342.714203	827.550537
1767.796837	-370.916382	-343.415558	838.947388
1767.799750	-366.299255	-343.824646	848.649353
1767.803083	-360.571594	-343.941559	858.877258
1767.806438	-356.012878	-343.473999	870.274109
1767.809749	-351.161865	-344.116882	880.209839
1767.813081	-345.200439	-343.649323	890.671570
1767.816414	-339.122131	-343.415558	900.490295
1767.819745	-332.576294	-343.766235	910.659790
1767.823075	-325.329041	-343.240234	922.465820
1767.826419	-319.192261	-343.064880	932.343018
1767.829743	-311.945068	-342.071289	941.752747
1767.833080	-303.821167	-342.597290	953.149658
1767.836411	-296.690796	-341.603729	963.786621
1767.839749	-288.450012	-340.201050	974.014587
1767.843114	-279.916992	-339.265930	983.015198
1767.846412	-270.624207	-338.798370	994.178223
1767.849770	-261.623596	-337.921692	1004.172424
1767.853075	-251.921677	-335.934540	1013.406799
1767.856409	-241.693771	-334.181183	1022.465820
1767.859748	-231.699570	-333.129181	1033.395142
1767.863075	-221.647003	-331.551147	1042.337280
1767.866410	-211.535950	-330.323792	1051.980713
1767.869739	-200.548218	-327.810638	1060.513794
1767.873071	-189.151382	-325.239044	1068.403809
1767.876408	-177.871414	-322.842773	1074.949829
1767.879764	-166.533020	-321.089417	1082.372314
1767.883071	-154.668610	-318.167145	1090.963745
1767.886409	-142.102859	-316.121552	1098.503174
1767.889745	-130.706024	-313.023956	1104.464600
1767.893076	-118.315598	-309.692596	1110.601318
1767.896405	-105.925186	-306.594971	1116.855103
1767.899739	-92.541206	-303.205139	1121.881348
1767.904433	-68.227936	-296.659271	1130.881958
1767.907308	-55.369957	-292.042084	1135.206909
1767.910626	-43.037994	-288.301575	1139.122681
1767.913921	-29.595558	-285.320862	1142.454102
1767.917274	-16.971363	-280.469910	1145.902344
1767.920609	-4.054937	-276.787842	1149.701294
1767.924040	8.277031	-272.404449	1150.636475
1767.926846	21.076563	-268.079468	1153.383423
1767.930181	35.512566	-262.118073	1154.961426
1767.933532	47.844536	-258.085327	1155.136841
1767.936836	61.403858	-253.175903	1156.364136
1767.940163	73.677383	-247.974274	1156.597900
1767.943496	87.587372	-242.889526	1155.896484
1767.946833	100.854469	-237.921692	1153.441895
1767.949730	113.478668	-232.603149	1153.032715
1767.953062	126.395096	-227.927521	1151.513184
1767.956392	139.253067	-222.082977	1149.292236
1767.959732	152.870834	-216.647583	1147.538818
1767.963066	165.904160	-211.796600	1144.967285
1767.966404	178.995911	-206.536545	1141.635864
1767.969729	191.737000	-201.042664	1137.310913
1767.973068	203.952072	-195.198135	1132.752197
1767.976394	217.219177	-189.996490	1128.485718
1767.979735	230.194046	-184.210403	1122.348877
1767.983063	242.701340	-178.716553	1118.024048
1767.986407	254.799530	-173.222672	1110.952026
1767.989728	266.956177	-167.962601	1104.698364
1767.993060	278.411469	-161.942734	1097.334351
1767.996415	290.451172	-156.741089	1089.794922
1767.999729	302.490967	-151.364120	1083.891968
1768.003059	313.595581	-145.636475	1075.300415
1768.006396	324.524841	-140.493286	1066.884277
1768.009734	335.454163	-134.765640	1057.708374
1768.013059	345.740540	-128.570419	1048.824707
1768.016396	355.617737	-124.128571	1039.765747
1768.019729	365.436584	-119.160721	1029.771484
1768.023057	375.255371	-113.725296	1020.303345
1768.026391	383.729980	-108.757462	1010.542969
1768.029724	393.081238	-103.088257	1001.074829
1768.033057	401.497375	-98.821747	990.963745
1768.036389	409.738159	-92.977211	979.800720
1768.039732	418.095825	-88.243134	970.098816
1768.043060	424.407959	-83.099945	959.870850
1768.046394	432.181152	-78.658104	949.058472
1768.050642	445.623596	-68.956169	928.018127
1768.053939	451.935730	-64.397430	917.381042
1768.057254	457.488037	-59.488022	905.808838
1768.060573	462.806580	-55.163063	895.580994
1768.063934	468.242004	-50.428993	884.067200
1768.067254	473.560486	-46.045586	873.663940
1768.070147	478.060791	-41.311508	863.202209
1768.073507	482.502625	-37.571014	851.104065
1768.076880	486.710693	-33.596725	839.882507
1768.080173	490.451172	-29.330215	828.894775
1768.083489	495.009949	-25.063709	818.257751
1768.086817	498.808838	-20.797195	807.386902
1768.089717	500.971375	-17.115139	795.990051
1768.093046	505.237854	-13.374638	785.002319
1768.096388	508.218567	-9.867916	773.371704
1768.099718	511.842224	-6.010521	761.565735
1768.103056	513.653992	-2.503799	750.636475
1768.106383	515.582703	1.236704	739.122742
1768.109719	518.271240	4.217415	727.199890
1768.113053	519.907654	7.431910	715.861511
1768.116387	521.485657	10.237286	704.172424
1768.119738	522.888367	13.334890	694.002869
1768.123045	524.758606	16.198713	682.196960
1768.126385	524.875488	18.828754	670.975403
1768.129715	525.518433	22.043247	659.870850
1768.133047	526.687317	24.731735	648.941528
1768.136377	527.622437	27.127995	638.012268
1768.139712	526.921082	29.699589	627.316772
1768.143068	527.388672	33.147865	616.913513
1768.146381	526.745728	34.784336	605.808838
1768.149714	527.096436	37.239040	595.230286
1768.153045	527.213318	39.693745	586.638794
1768.156380	525.927551	41.271770	576.878418
1768.159711	525.050842	43.668030	567.059631
1768.163054	523.998840	45.246056	557.649963
1768.166380	523.414368	46.999413	547.129761
1768.169712	521.719482	49.161892	537.603149
1768.173040	521.368774	50.389244	528.310364
1768.176377	519.907654	52.025715	519.718872
1768.179705	518.504944	53.837521	512.413208
1768.183048	517.511414	55.590881	503.938599
1768.186372	515.874939	57.168907	495.288727
1768.191070	511.783752	60.909409	479.508484
1768.194028	510.556396	61.552307	471.793671
1768.197325	509.095276	63.130333	463.319122
1768.200555	508.043274	64.240799	456.890106
1768.203888	505.471680	65.701927	449.116882
1768.207250	502.140259	66.987724	442.746338
1768.210134	499.860901	68.039742	436.434235
1768.213472	497.523071	69.676208	428.953247
1768.216807	495.360596	70.552887	421.764435
1768.220148	493.665710	71.663353	415.393890
1768.223512	491.620117	72.773819	408.614258
1768.226821	489.223877	73.592056	401.659241
1768.229709	486.944458	74.877853	395.756256
1768.233036	484.723572	76.105202	388.801270
1768.236377	482.151917	76.514313	382.664520
1768.239702	480.106384	77.507889	377.112183
1768.243032	478.762085	78.150787	370.390991
1768.246372	476.073669	78.618347	364.488007
1768.249735	473.502075	78.969025	358.701904
1768.253040	471.047363	79.553474	353.383392
1768.256371	469.352417	80.780823	347.831085
1768.259701	466.196411	80.956161	341.869659
1768.263041	464.910583	81.482178	336.142029
1768.266370	461.696106	82.066628	331.641724
1768.269700	459.708923	82.884857	325.738739
1768.273037	457.897156	82.767975	321.589111
1768.276366	454.507324	83.118645	316.504395
1768.279704	453.104614	83.703094	312.471649
1768.283030	450.766785	83.936874	307.445343
1768.286365	447.727661	84.696663	303.120392
1768.289703	445.565186	84.696663	298.327881
1768.293045	443.344238	84.988892	294.178253
1768.296362	440.421936	85.865570	290.496185
1768.299706	438.727051	85.865570	287.106384
1768.303036	436.973694	86.040909	282.430756
1768.306359	434.460571	86.333145	279.216248
1768.309701	432.707153	86.274689	275.008179
1768.313029	430.778503	86.917595	272.495026
1768.316363	429.200439	87.326706	268.696075
1768.319698	426.745728	87.268265	265.832275
1768.323035	424.933960	87.385155	263.202209
1768.327656	420.901245	87.852722	256.773224
1768.330586	419.557007	88.320282	253.617187
1768.333896	418.037415	88.612503	251.045593
1768.337321	415.582703	89.021622	248.123322
1768.340613	414.238464	89.196960	245.727051
1768.343878	413.069580	89.196960	242.161896
1768.346788	410.497925	89.839859	240.466980
1768.350111	409.036804	90.132080	237.661591
1768.353447	407.692566	90.482758	236.317352
1768.356787	406.289917	90.833427	232.869080
1768.360128	404.887207	91.242554	231.232605
1768.363472	403.016968	91.008766	228.719452
1768.366375	401.964905	91.476334	226.790771
1768.369696	400.270020	91.125656	224.745178
1768.373026	398.575073	91.885445	221.939789
1768.376355	396.587952	92.353012	220.303314
1768.379728	395.302185	92.586792	218.842194
1768.383030	394.600830	92.703674	216.738159
1768.386358	392.905884	92.294563	214.108124
1768.389689	391.620117	92.937462	211.887207
1768.393024	390.509644	92.820572	210.659851
1768.396394	388.990051	92.820572	209.081818
1768.399691	388.171814	92.703674	207.153137
1768.403024	386.418457	92.820572	205.516663
1768.406356	385.717102	92.703674	204.523071
1768.409715	384.255981	92.353012	201.600830
1768.413016	382.502625	92.937462	201.191681
1768.416359	382.210388	92.469894	199.905914
1768.419681	381.392151	92.528351	198.970779
1768.423026	380.281738	92.353012	197.275848
1768.426350	379.638794	92.937462	195.639389
1768.429694	378.820557	92.762131	195.171829
1768.433024	378.002319	92.879013	194.587372
1768.436351	377.125671	93.229691	193.418457
1768.439678	376.774963	93.229691	192.483337
1768.443015	376.132080	93.112801	192.191116
1768.446353	375.313843	93.521912	191.548218
1768.449679	375.255371	93.521912	190.554626
1768.453067	374.846313	93.463470	190.203979
1768.456361	374.612488	93.638809	189.911743
1768.459682	374.437195	94.106369	189.385742
1768.463020	373.209839	93.931030	188.859741
1768.466350	373.677368	94.515488	188.333710
1768.469682	373.326721	94.632378	188.918167
1768.474295	372.683838	94.983047	188.742828
1768.477655	372.800720	95.625954	188.509064
1768.480560	372.040894	95.509064	188.625946
1768.483996	371.514893	95.801285	189.911743
1768.487326	372.157837	95.918175	189.444183
1768.490608	371.690247	96.736412	188.859741
1768.493861	371.514893	96.502625	188.801285
1768.496792	372.625366	97.028641	188.509064
1768.500099	372.450012	97.087082	189.093506
1768.503433	372.391602	96.911751	188.742828
1768.506769	372.391602	97.613091	189.151947
1768.510104	372.566895	98.022209	188.918167
1768.513012	372.040894	98.022209	189.677963
1768.516337	372.742249	97.846870	189.210388
1768.519674	372.742249	97.846870	190.262421
1768.523013	372.976013	99.015778	190.028641
1768.526345	372.976013	98.665108	190.320862
1768.529670	373.735840	99.308006	191.080658
1768.533008	374.729370	99.074226	192.249557
1768.536357	374.554077	99.600235	192.600235
1768.539695	374.846313	99.132675	192.892456
1768.543005	375.489197	99.483345	193.360016
1768.546347	375.898315	99.483345	193.886017
1768.549673	376.307434	99.600235	195.405609
1768.553006	377.593201	99.483345	195.580933
1768.556337	378.060791	99.892456	196.749847
1768.559670	378.353027	100.009346	197.275848
1768.563045	378.879028	99.892456	199.321442
1768.566337	380.632385	100.593803	199.263000
1768.569678	381.099915	100.886032	201.717712
1768.573008	381.801270	100.886032	203.471069
1768.576339	383.379333	101.470482	204.172424
1768.579673	385.015747	101.645821	206.393341
1768.583007	385.775574	101.645821	208.146698
1768.586336	386.886047	102.113380	210.250732
1768.589672	387.704285	102.580940	211.594971
1768.592997	388.814758	103.048508	212.997650
1768.596336	390.334290	103.574516	215.043243
1768.599665	391.853882	103.925186	217.088837
1768.603004	393.315002	103.983627	219.894226
1768.606377	394.425476	104.217415	221.881348
1768.610964	397.055542	105.737000	225.972534
1768.613853	398.458191	105.795441	227.667450
1768.617188	399.919373	106.146111	230.180603
1768.620539	401.322021	106.672119	232.459961
1768.623876	402.841614	107.139687	234.680878
1768.627266	404.828735	107.431908	237.077148
1768.630118	405.471680	107.957916	239.239624
1768.633465	407.517273	108.717705	242.454132
1768.636767	408.393921	109.009933	245.551727
1768.640089	410.322632	109.477501	248.006409
1768.643423	411.959106	110.003502	250.928680
1768.646333	413.011108	110.061951	254.026306
1768.649697	414.705994	110.354172	255.954987
1768.652996	416.576294	110.412621	259.052582
1768.656330	418.446533	110.529518	262.910004
1768.659657	419.381653	110.880188	265.540039
1768.662992	422.479248	111.113968	269.163635
1768.666326	423.648193	112.049095	271.910583
1768.669667	425.635315	112.341316	275.651093
1768.672991	427.330200	112.107536	279.099365
1768.676329	429.551147	112.399765	282.606079
1768.679678	431.538269	112.867325	285.762115
1768.682988	433.817627	113.510231	290.203949
1768.686322	435.454163	113.159561	293.710693
1768.689708	437.149048	114.036232	297.626526
1768.693023	439.428406	113.919342	301.367035
1768.696324	441.123291	113.919342	306.159546
1768.699662	444.279358	114.620689	310.601410
1768.702992	446.266541	114.912918	315.335480
1768.706325	448.604370	114.971359	320.069550
1768.709657	450.182373	115.088249	323.985382
1768.712991	452.286377	115.205139	329.537689
1768.716324	454.448853	115.438919	334.563995
1768.719652	456.085327	115.789597	340.174744
1768.723017	459.066040	116.374046	345.902405
1768.726322	460.994751	116.257156	351.162445
1768.729653	463.507874	116.607826	356.714783
1768.732990	465.845703	116.607826	362.968414
1768.736319	467.599060	117.367622	368.871399
1768.739651	469.878418	117.601402	374.715942
1768.743918	474.203369	118.068962	388.099945
1768.747267	476.307434	117.776733	393.710693
1768.750576	478.586792	118.478081	401.016357
1768.753874	480.924622	118.653419	407.503784
1768.757167	482.970215	118.711861	414.166565
1768.760508	485.366455	119.296318	421.180023
1768.763409	486.944458	119.062531	427.667419
1768.766764	488.697815	119.296318	435.323792
1768.770099	491.094116	119.120979	442.746338
1768.773427	492.847473	119.062531	449.467560
1768.776769	493.957886	119.062531	456.539429
1768.779686	496.529541	118.945641	465.306244
1768.782980	498.516663	119.296318	472.144348
1768.786321	499.042664	119.179420	478.865540
1768.789654	501.205139	119.004089	487.457001
1768.792980	504.653381	118.887199	495.814728
1768.796354	505.354736	118.945641	504.698395
1768.799654	507.751038	117.835182	512.062561
1768.802981	508.569214	117.367622	520.244873
1768.806317	509.855042	117.133842	529.303894
1768.809679	511.199280	116.549385	537.720032
1768.812977	511.900696	115.731155	545.493286
1768.816317	512.485107	115.263588	557.240784
1768.819643	513.770935	114.796028	565.832275
1768.822989	515.407349	114.270020	575.300415
1768.826314	515.933350	112.925774	584.242554
1768.829644	516.517822	112.399765	593.710693
1768.832980	517.452942	111.289299	603.704834
1768.836313	517.277649	109.886612	614.166565
1768.839664	517.745178	110.003502	624.978943
1768.842982	517.628296	108.016365	635.265320
1768.846307	517.569824	107.256577	646.545288
1768.849670	517.277649	105.678551	656.364075
1768.852993	517.219177	104.801872	667.760986
1768.856312	516.108704	103.282288	678.398010
1768.859641	515.641174	102.171829	689.736389
1768.862981	513.829346	100.418472	701.717712
1768.866309	513.011108	99.483345	713.114502
1768.869643	511.316223	97.671532	724.394470
1768.872974	510.147278	95.742844	736.726440
1768.876303	508.218567	94.690819	747.714233
1768.879643	505.120972	93.171242	759.637024
1768.884345	499.393311	89.489189	783.248962
1768.887188	497.172424	87.911163	794.704285
1768.890570	494.074829	85.924019	805.633545
1768.893901	490.918762	83.761536	816.036804
1768.897291	487.412048	81.482178	829.946838
1768.900485	484.022217	80.137924	841.051392
1768.903826	479.989502	77.800110	852.389832
1768.906731	476.482788	75.579193	864.254211
1768.910073	471.807129	72.890709	875.592651
1768.913390	467.014587	70.319107	887.573914
1768.916727	462.631226	68.273521	898.035645
1768.920064	457.195801	64.942139	909.198669
1768.922973	452.111084	62.195206	919.134460
1768.926328	446.792480	58.688484	930.881897
1768.929639	441.649353	56.584454	942.629456
1768.932969	435.337219	52.960838	953.441833
1768.936300	429.083618	49.687901	964.020447
1768.939669	422.420837	46.181179	975.475708
1768.942969	415.115173	42.557568	985.703674
1768.946300	408.101685	38.758621	996.399170
1768.949637	401.029785	35.193451	1006.568665
1768.952970	393.315002	29.816481	1016.971924
1768.956301	385.833984	26.075977	1029.420776
1768.959637	376.891907	21.867912	1039.765747
1768.962966	368.709534	18.010519	1049.350708
1768.966296	359.124512	13.451782	1058.877319
1768.969659	350.007019	8.717709	1067.877808
1768.972967	340.421936	4.100525	1077.404419
1768.976297	329.960266	-0.107540	1086.931030
1768.979632	320.550537	-4.724724	1095.697876
1768.982968	309.562805	-9.575691	1104.523071
1768.986297	299.159546	-13.783752	1112.880737
1768.989626	287.879639	-18.342491	1120.186401
1768.992962	276.365875	-23.135010	1127.842773
1768.996297	265.378143	-28.511982	1134.505615
1768.999626	254.039749	-33.129166	1141.460571
1769.002966	242.292221	-37.863243	1148.941528
1769.006314	230.135590	-42.655754	1155.019897
1769.009625	218.037399	-47.798950	1161.215088
1769.012977	205.237869	-52.007019	1166.358276
1769.017568	179.931030	-62.234955	1176.177002
1769.020502	167.189941	-67.027473	1180.735840
1769.023837	154.624207	-71.936882	1184.827026
1769.027188	141.824661	-76.320274	1187.047852
1769.030597	129.142029	-80.937469	1189.619507
1769.033886	116.284042	-85.671539	1192.892456
1769.036750	104.244301	-91.048515	1195.405640
1769.040083	90.977203	-95.665688	1196.866699
1769.043385	78.177673	-99.873749	1196.866699
1769.046717	65.553474	-105.426071	1199.263062
1769.050050	52.753944	-109.809464	1198.970703
1769.053382	39.720631	-114.485092	1198.503174
1769.056297	27.622442	-118.400940	1198.970703
1769.059624	13.887785	-123.894791	1197.392822
1769.062959	1.438925	-128.511993	1196.632935
1769.066291	-10.834599	-133.596725	1195.405640
1769.069616	-23.341904	-138.330811	1192.833984
1769.072958	-36.082993	-143.123322	1190.729980
1769.076287	-48.356522	-148.558731	1187.457031
1769.079620	-60.396255	-152.883698	1185.878906
1769.082949	-73.371132	-157.267090	1183.248901
1769.086287	-85.060204	-162.760956	1178.105713
1769.089622	-97.509064	-167.144348	1174.072998
1769.092972	-110.308578	-171.878448	1170.157227
1769.096286	-122.056107	-176.261841	1165.306152
1769.099616	-133.394501	-180.469910	1160.572144
1769.102950	-145.083588	-185.087097	1153.149658
1769.106280	-156.655762	-188.944473	1146.895996
1769.109620	-168.812393	-193.386322	1141.460571
1769.112956	-179.624771	-196.483932	1134.505615
1769.116284	-190.846298	-201.451782	1127.842773
1769.119613	-201.132675	-204.724731	1120.946289
1769.122954	-212.471085	-208.348328	1113.056152
1769.126282	-222.231430	-210.803040	1105.925781
1769.129616	-232.459366	-214.192871	1097.158936
1769.132950	-242.687332	-217.816483	1090.145508
1769.136298	-252.447708	-220.388092	1081.086548
1769.139613	-262.324951	-223.427231	1073.488647
1769.142949	-271.500854	-225.765045	1064.137329
1769.146284	-280.618347	-228.161316	1055.429077
1769.149616	-289.151367	-231.025146	1045.376465
1769.152948	-297.158386	-233.129181	1037.135620
1769.157229	-313.639954	-237.161896	1017.848633
1769.160473	-321.822327	-238.564575	1008.848022
1769.163798	-328.894226	-240.785522	1000.022827
1769.167179	-335.907654	-242.480438	990.028564
1769.170479	-342.628906	-243.883118	982.196899
1769.173822	-349.174744	-245.519562	971.384521
