time (s)	magX	magY	magZ
3992.747686	463.800110	115.672707	584.885437
3992.750599	463.858582	117.542953	574.715942
3992.753911	464.033875	120.056107	564.546509
3992.757243	463.098755	121.283455	553.091187
3992.760565	462.397461	123.445938	541.168335
3992.763892	462.338989	125.433075	530.706604
3992.767230	461.228516	127.011108	519.075989
3992.770559	459.884277	128.998245	509.490936
3992.773897	458.364685	130.108704	499.146118
3992.777224	458.014038	130.985382	489.268860
3992.780561	456.786682	131.628296	477.696686
3992.783894	455.442444	132.271179	467.468719
3992.787226	453.396851	133.615417	456.773224
3992.790566	451.643494	134.199890	446.428406
3992.793937	450.416138	134.550552	437.778473
3992.797223	448.545898	134.725891	427.667419
3992.800556	446.500305	135.661011	418.666870
3992.803892	443.987122	135.719452	409.607819
3992.807222	441.590881	135.544128	401.191681
3992.810559	439.895996	135.368790	392.775574
3992.813892	437.558167	135.076569	385.119232
3992.817224	435.804810	134.667450	377.053772
3992.820555	433.583862	134.433655	368.579163
3992.823890	431.596741	133.907654	361.974854
3992.827219	428.966675	133.498535	355.195190
3992.830555	426.745728	133.030975	349.233765
3992.833888	424.174194	132.797195	342.278778
3992.837236	422.420837	132.446518	335.791351
3992.840554	419.732300	131.511383	330.063690
3992.843893	417.569824	131.160721	324.745178
3992.847220	415.641113	131.043823	319.134430
3992.850557	412.835754	130.634705	314.225006
3992.853887	410.439514	130.517822	309.432495
3992.857224	408.218567	129.874924	304.055542
3992.860549	406.231445	129.232025	299.672119
3992.863881	403.776733	129.290466	294.762726
3992.868568	399.334900	128.998245	285.177673
3992.871499	396.587952	128.706024	280.209808
3992.874815	394.250183	128.296906	275.943298
3992.878109	392.204529	128.355347	270.975464
3992.881421	389.866760	128.472229	266.884277
3992.884721	387.178284	127.420219	262.500885
3992.888089	384.723572	128.063110	258.760376
3992.891428	382.502625	127.829338	253.734070
3992.894330	380.047913	127.829338	249.000000
3992.897689	377.417847	127.478668	245.025726
3992.900996	375.080078	127.244888	239.239624
3992.904330	372.917603	127.420219	235.499115
3992.907643	370.462891	127.303329	231.524841
3992.910581	368.183533	126.368202	227.492126
3992.913884	365.670349	125.842201	222.407349
3992.917216	363.390991	125.725311	218.199310
3992.920548	361.696106	125.082405	214.283447
3992.923893	359.007629	124.439507	209.958496
3992.927215	356.085327	123.679718	205.867310
3992.930550	353.747498	122.978371	201.951477
3992.933880	352.111084	122.919930	198.970779
3992.937214	349.130310	121.341904	195.054932
3992.940548	347.552307	121.225014	191.665100
3992.943882	345.214478	120.582115	187.866150
3992.947217	343.870239	119.705437	185.353012
3992.950549	341.649292	119.062531	182.021622
3992.953894	340.071289	118.478081	179.099350
3992.957206	337.558167	117.250732	177.170654
3992.960541	336.330811	116.315605	174.774414
3992.963877	334.869690	115.263588	172.202805
3992.967207	332.765625	114.562248	169.806549
3992.970594	331.655151	114.620689	167.351837
3992.973881	330.486267	113.977791	165.715363
3992.977206	329.784912	112.925774	164.488022
3992.980544	328.265320	112.575096	162.676208
3992.983897	326.921082	111.523079	161.098175
3992.987212	325.284607	111.172409	158.994141
3992.990542	324.115723	110.880188	157.766800
3992.993875	322.946838	110.295731	156.130341
3992.997205	321.894775	109.769722	155.545868
3993.000541	320.725891	109.652832	154.201630
3993.003873	319.966125	109.535942	152.974274
3993.007206	319.323181	109.009933	151.337799
3993.010545	318.154297	108.893044	150.227356
3993.015213	316.108704	108.659264	148.590881
3993.018149	315.231995	107.957916	147.246643
3993.021510	314.355347	108.367035	146.720642
3993.024797	313.303345	108.133255	144.791931
3993.028080	311.959106	107.841026	143.915253
3993.031385	311.140869	107.198128	142.337219
3993.034294	310.497925	107.665688	140.817657
3993.037628	309.504395	107.373466	139.882523
3993.040962	308.452393	106.789017	138.479828
3993.044289	307.575684	106.964348	137.194031
3993.047646	306.932800	106.672119	135.557556
3993.050984	305.646973	106.438339	134.213318
3993.053864	305.004089	106.730568	133.044418
3993.057198	304.185852	106.438339	131.349503
3993.060545	303.309204	105.795441	130.297485
3993.063862	302.724731	105.444771	129.245468
3993.067203	301.848022	105.327873	128.836349
3993.070546	301.146729	104.977203	127.550552
3993.073867	300.912903	103.925186	126.556976
3993.077199	300.328491	104.042076	125.972527
3993.080536	299.451782	103.632957	124.978958
3993.083864	299.276428	103.282288	123.810043
3993.087197	298.867310	102.580940	123.693161
3993.090533	299.334900	102.230270	122.699585
3993.093867	298.692017	101.996490	122.115128
3993.097194	298.633545	101.645821	121.822906
3993.100526	298.399780	101.236702	121.589127
3993.103861	298.282837	100.593803	121.472229
3993.107217	298.341309	100.009346	122.348915
3993.110524	298.984192	99.658676	121.530678
3993.113863	298.867310	99.249565	121.413788
3993.117198	299.510193	98.898888	121.296898
3993.120522	299.627136	98.957329	121.589127
3993.123864	300.270020	98.665108	122.232025
3993.127191	300.211548	97.788429	122.641144
3993.130524	300.386902	98.139099	123.400932
3993.133919	301.380493	97.496201	123.517822
3993.137206	302.257141	98.080658	124.160721
3993.140521	302.900024	98.080658	124.920517
3993.143856	303.250732	97.905319	126.498535
3993.147191	303.835205	98.022209	126.381638
3993.150561	304.711853	97.729980	127.024544
3993.153854	304.887207	98.489769	127.667450
3993.157194	305.939209	98.080658	128.310333
3993.161822	307.049683	99.074226	129.303925
3993.164733	307.926392	98.781998	130.355927
3993.168066	308.277039	99.308006	130.706604
3993.171477	308.803040	99.424896	131.875519
3993.174818	310.088806	99.541786	133.161316
3993.178046	310.731750	99.600235	132.693741
3993.181380	311.023926	99.483345	133.745758
3993.184276	312.017517	99.600235	133.453522
3993.187625	312.660461	99.600235	135.031555
3993.190945	313.186462	100.301575	134.388657
3993.194319	314.238464	100.184685	136.258911
3993.197615	314.881348	100.184685	136.258911
3993.200996	315.816467	100.009346	137.369370
3993.203851	316.576294	99.600235	137.369370
3993.207188	318.095825	100.126236	138.304504
3993.210521	318.563416	100.009346	139.239624
3993.213857	319.615417	99.717125	140.233185
3993.217196	321.368774	98.957329	141.460541
3993.220515	322.479248	98.840439	142.278778
3993.223854	323.648193	98.840439	142.921692
3993.227182	325.401550	98.548218	144.733490
3993.230514	326.161316	98.548218	145.785507
3993.233851	327.856262	98.314438	146.779083
3993.237221	329.200439	97.320862	148.415543
3993.240520	330.544739	98.139099	150.461121
3993.243845	332.356506	97.087082	152.156036
3993.247177	334.518982	97.087082	153.850952
3993.250513	335.804810	96.736412	155.954987
3993.253845	338.142639	96.619522	157.942139
3993.257182	339.779053	96.268845	159.870834
3993.260518	342.233765	96.327293	162.383972
3993.263842	344.454712	96.385735	165.072479
3993.267176	346.617187	95.684395	167.527176
3993.270512	348.136780	95.333725	170.507874
3993.273848	350.240784	95.625954	173.196381
3993.277179	352.052612	95.625954	175.534180
3993.280561	355.267090	95.976624	179.391571
3993.283850	357.020447	95.625954	182.138519
3993.287200	359.416748	95.509064	185.002335
3993.290510	361.345398	95.976624	188.684387
3993.293842	363.683228	96.268845	192.191116
3993.297174	366.137939	96.561073	195.230286
3993.300516	369.001770	95.801285	198.503204
3993.303839	370.638245	96.268845	201.717712
3993.307175	373.209839	96.794861	204.698425
3993.311817	377.710083	96.970192	212.471649
3993.314725	379.405029	96.970192	214.984802
3993.318112	382.210388	97.145531	218.725311
3993.321465	385.015747	96.911751	222.816467
3993.324771	387.470459	96.853302	225.388062
3993.328021	389.808289	96.794861	228.544128
3993.330959	392.087646	96.853302	232.401520
3993.334270	395.068359	96.210403	235.323792
3993.337595	396.821716	96.619522	238.655182
3993.340929	399.451782	95.742844	243.739899
3993.344259	401.555847	95.684395	246.194611
3993.347171	404.068970	94.690819	250.578003
3993.350511	406.699036	94.515488	254.493866
3993.353833	408.861511	93.521912	258.409698
3993.357170	411.140869	92.586792	262.734650
3993.360506	414.472229	91.943893	267.234955
3993.363837	416.985413	91.417877	271.618347
3993.367200	419.440125	90.307419	276.352417
3993.370511	421.836365	89.021622	280.852692
3993.373845	424.583313	87.969604	286.288116
3993.377168	427.154907	87.326706	291.489777
3993.380501	430.194031	85.456459	296.399170
3993.383831	433.057861	84.521332	301.776154
3993.387172	436.155457	83.586205	308.322021
3993.390499	438.843994	82.300407	313.815887
3993.393835	441.883118	80.663940	320.537109
3993.397172	444.922241	79.845703	326.323212
3993.400501	447.669250	78.735245	333.453522
3993.403836	450.533020	76.981880	340.408508
3993.407168	453.689026	75.462303	347.655762
3993.410530	456.260681	74.468735	355.721222
3993.413835	458.598450	72.715370	363.026886
3993.417163	461.520752	71.078903	370.507874
3993.420500	464.676819	70.085327	378.281128
3993.423836	467.248413	68.448860	386.580353
3993.427158	469.527771	66.812393	394.762695
3993.430498	472.040894	65.585037	403.120392
3993.433823	474.495605	63.656342	411.127411
3993.437168	476.599670	62.312096	419.485077
3993.440531	478.879028	60.850960	428.602539
3993.443827	481.450623	59.214493	436.667999
3993.447161	482.502625	57.519577	446.019257
3993.451812	486.769165	53.954411	463.435974
3993.454725	488.405640	52.668613	471.092346
3993.458036	490.158997	50.623024	480.209808
3993.461370	491.912292	48.343658	490.262390
3993.464760	493.256592	46.005844	498.795441
3993.468087	494.951477	43.609585	506.977783
3993.470990	495.009949	41.856224	516.270630
3993.474255	496.704895	38.466393	524.745178
3993.477600	497.581543	36.128578	533.336609
3993.480919	498.692017	33.323200	541.518982
3993.484288	498.984253	29.173582	550.344238
3993.487576	499.627136	26.192867	560.221497
3993.490492	499.685547	22.452366	568.988342
3993.493828	500.270020	19.179426	579.157837
3993.497157	500.912903	15.731151	587.807739
3993.500492	500.971375	11.756866	596.866699
3993.503821	500.503784	7.782583	605.925781
3993.507156	500.679138	3.632961	615.569214
3993.510489	499.860901	-1.685566	625.446533
3993.513842	498.925781	-6.302750	635.089966
3993.517217	496.938599	-10.686150	645.259521
3993.520490	496.003479	-15.186443	654.318481
3993.523821	494.834595	-20.388077	665.481567
3993.527158	493.022766	-25.063709	676.060181
3993.530489	490.568054	-30.908241	686.405029
3993.533816	489.165405	-36.402107	697.158997
3993.537154	485.600220	-41.369957	708.555786
3993.540484	483.379333	-46.746933	718.725281
3993.543816	480.223267	-52.533020	730.005249
3993.547148	476.950317	-57.676208	740.583862
3993.550517	472.859131	-64.105202	751.746887
3993.553819	468.768005	-69.715965	761.916443
3993.557156	464.442993	-75.326714	772.670349
3993.560486	459.592041	-80.645233	784.534790
3993.563818	454.857971	-86.781998	795.288757
3993.567150	450.065491	-92.509651	805.165955
3993.570482	443.753357	-98.412628	815.978333
3993.573817	437.675049	-104.140274	826.615417
3993.577151	432.473450	-109.692581	836.258911
3993.580480	425.869080	-116.004684	845.668640
3993.583819	419.849182	-121.381653	855.428955
3993.587149	412.835754	-127.343079	864.897156
3993.591751	398.984192	-138.973694	882.372314
3993.594700	392.672119	-144.759796	889.853333
3993.597994	384.197571	-150.604324	897.918701
3993.601365	376.599670	-156.682648	905.750366
3993.604693	369.060181	-161.884277	912.179382
3993.608071	361.403870	-168.430161	919.894226
3993.611396	354.215088	-174.976044	925.738770
3993.614273	345.506714	-180.703674	932.635315
3993.617563	337.791931	-186.665115	937.603088
3993.620904	328.966675	-192.860321	943.506165
3993.624242	320.725891	-198.704849	947.714172
3993.627567	312.251282	-205.484512	952.798950
3993.630910	303.075378	-211.679733	957.182312
3993.633813	294.308594	-218.225601	960.689087
3993.637162	285.541809	-224.303925	964.429565
3993.640473	275.956757	-230.323792	967.585571
3993.643808	266.956177	-236.811218	970.800110
3993.647139	257.721802	-243.240234	973.780823
3993.650470	247.435425	-250.312103	974.832825
3993.653804	237.324387	-256.507324	977.930481
3993.657136	226.921112	-263.286957	979.157776
3993.660476	216.751602	-269.949738	980.385132
3993.663801	206.406769	-275.677368	982.606079
3993.667138	194.951492	-282.457062	983.015198
3993.670474	184.431335	-287.950897	984.067200
3993.673806	173.911163	-293.970795	984.593201
3993.677138	162.280533	-300.224426	984.593201
3993.680481	150.825256	-306.127411	983.132080
3993.683807	138.843964	-311.971924	982.956726
3993.687138	127.680885	-316.939789	981.144897
3993.690472	116.225594	-322.667450	979.683777
3993.693805	104.536530	-327.927521	978.865540
3993.697139	93.139687	-333.304504	976.995300
3993.700471	81.509064	-337.863251	973.839294
3993.703801	69.177094	-342.831085	971.209290
3993.707133	57.897137	-346.688507	968.929871
3993.710467	47.026299	-350.136780	965.540039
3993.713808	36.097019	-353.994171	962.208679
3993.717129	24.524839	-357.851532	958.760376
3993.720475	13.478667	-361.299835	954.786011
3993.723812	3.426067	-365.215668	950.402649
3993.727134	-7.620106	-368.137939	945.902344
3993.730465	-16.445354	-370.592651	941.460510
3993.733882	-26.439510	-373.105774	936.141968
3993.738419	-45.142021	-377.606079	925.621826
3993.741362	-54.434837	-380.820557	920.244934
3993.744648	-62.091179	-382.515503	914.400330
3993.748002	-70.799530	-384.794861	908.029785
3993.751334	-78.923439	-387.015778	902.360535
3993.754765	-86.696671	-388.593811	896.282288
3993.758089	-94.469902	-390.288757	889.970154
3993.760924	-101.424896	-391.749878	883.541199
3993.764227	-109.081238	-393.210999	877.053772
3993.767576	-115.977783	-395.139709	869.806580
3993.770884	-122.289902	-396.542358	862.383972
3993.774219	-129.011108	-398.003479	854.961426
3993.777130	-135.147873	-399.581543	847.655762
3993.780464	-142.102859	-400.107544	839.765625
3993.783795	-147.947403	-401.627136	831.992432
3993.787131	-154.025726	-402.912903	824.628296
3993.790461	-159.987137	-403.497375	816.562805
3993.793791	-165.890121	-403.672699	808.964966
3993.797123	-171.676224	-405.718292	801.133240
3993.800463	-177.871414	-405.309174	793.301575
3993.803793	-184.125061	-405.776733	785.060791
3993.807131	-189.969604	-406.068970	777.755066
3993.810458	-194.820572	-406.945679	769.280518
3993.813838	-199.905319	-406.478088	761.448853
3993.817130	-206.042068	-406.536530	753.734009
3993.820456	-211.185257	-406.536530	745.317932
3993.823792	-215.860886	-405.893616	736.901794
3993.827165	-220.828751	-405.659821	727.842773
3993.830459	-225.738159	-405.133820	720.770935
3993.833790	-230.764450	-404.374023	713.465210
3993.837126	-235.732315	-404.315613	704.581543
3993.840478	-240.174179	-403.029785	696.866699
3993.843793	-244.499130	-402.211578	689.444214
3993.847123	-248.707199	-401.510254	682.255371
3993.850461	-253.032120	-399.406189	674.540588
3993.853796	-256.480408	-398.587952	667.001160
3993.857119	-260.279358	-397.243713	660.221497
3993.860456	-263.260071	-396.133240	653.500305
3993.863784	-266.883728	-394.964355	647.655762
3993.867120	-269.864441	-393.795441	640.291626
3993.870476	-272.962036	-392.275879	633.628845
3993.874732	-278.046753	-388.476898	621.413757
3993.878041	-280.735229	-387.775574	615.919922
3993.881299	-282.254822	-385.613068	610.484497
3993.884667	-284.651062	-384.385742	603.880188
3993.887957	-286.229126	-383.509064	599.321411
3993.891321	-288.333130	-382.106354	593.476868
3993.894207	-289.735840	-380.177704	588.041443
3993.897566	-291.313843	-378.716522	583.015198
3993.900889	-292.950317	-377.664520	578.105774
3993.904229	-294.469910	-376.495605	573.021057
3993.907555	-294.937439	-375.209808	568.053162
3993.910447	-296.164795	-373.865570	562.909973
3993.913821	-297.392151	-371.761536	557.883667
3993.917112	-298.327271	-370.943329	551.980713
3993.920451	-299.437744	-370.241974	546.136169
3993.923783	-300.022217	-369.073059	540.993042
3993.927134	-300.898865	-366.910583	536.375793
3993.930451	-301.833984	-366.209229	531.992432
3993.933776	-303.295166	-364.397430	526.790771
3993.937114	-304.288696	-363.228516	521.063110
3993.940442	-305.048523	-362.293396	517.147278
3993.943778	-306.509644	-360.540039	511.887207
3993.947114	-306.684998	-359.371124	507.971344
3993.950444	-307.795471	-357.910004	501.893005
3993.953783	-308.789001	-355.981293	498.269440
3993.957145	-309.782593	-354.812378	493.593811
3993.960445	-310.951477	-352.942139	488.625916
3993.963780	-311.419067	-351.948578	484.300964
3993.967109	-312.587952	-350.019867	480.034485
3993.970460	-313.347717	-348.617187	475.592651
3993.973776	-314.224426	-346.746918	471.968994
3993.977111	-315.218018	-345.461151	468.111603
3993.980439	-315.919373	-344.175354	463.962006
3993.983772	-316.912903	-342.246643	460.104614
3993.987112	-317.848022	-340.785522	457.416138
3993.990445	-318.841614	-339.090607	453.500275
3993.993777	-319.133850	-338.038574	450.753357
3993.997107	-319.776733	-336.109894	447.246613
3994.000465	-320.711853	-334.999420	445.259460
3994.003775	-320.887207	-333.888947	442.395660
3994.008445	-321.179443	-331.200470	438.187592
3994.011307	-322.582153	-329.973114	436.200439
3994.014726	-323.049683	-328.278198	434.622437
3994.018046	-323.634094	-327.459961	433.044403
3994.021296	-324.218567	-326.583282	432.050842
3994.024620	-323.809448	-325.414368	429.888367
3994.027951	-324.744629	-324.771484	428.836334
3994.030863	-324.569275	-323.777893	428.193451
3994.034199	-325.504395	-322.199890	426.849182
3994.037532	-325.679749	-321.440094	425.738739
3994.040886	-325.679749	-320.212738	425.329620
3994.044245	-326.497986	-319.277618	424.920502
3994.047100	-325.913513	-319.452972	423.634705
3994.050430	-326.322632	-318.225616	423.050262
3994.053821	-326.439514	-318.108704	421.530670
3994.057108	-326.497986	-317.290497	420.595551
3994.060434	-326.439514	-316.530701	420.712433
3994.063768	-326.497986	-316.589111	419.718872
3994.067097	-327.433105	-315.946228	419.660431
3994.070440	-327.608398	-315.420227	418.783722
3994.073764	-327.608398	-314.894196	417.848602
3994.077101	-327.433105	-314.601990	417.731720
3994.080434	-327.783752	-314.426636	416.212158
3994.083764	-328.368225	-313.549988	415.569244
3994.087118	-328.894226	-312.907074	414.634125
3994.090436	-328.894226	-312.264160	414.458771
3994.093761	-329.537109	-311.562836	413.348328
3994.097099	-330.472229	-311.212158	413.465210
3994.100428	-330.998230	-310.861481	412.763885
3994.103768	-331.231995	-309.692596	412.530090
3994.107098	-332.225586	-309.108124	412.004089
3994.110427	-332.985413	-309.166565	411.887207
3994.113762	-333.569824	-308.173004	411.594971
3994.117094	-334.037415	-307.939240	411.828766
3994.120428	-335.206299	-307.296295	411.945618
3994.123803	-336.258362	-306.594971	413.056091
3994.127097	-336.725891	-306.419647	412.705414
3994.130454	-336.492126	-306.127411	414.108093
3994.133757	-337.427246	-305.659851	415.043243
3994.137087	-338.128601	-305.192291	416.095245
3994.140424	-339.122131	-305.426056	416.504395
3994.144622	-340.057251	-304.432495	420.011078
3994.147984	-341.635315	-304.666260	422.524231
3994.151295	-341.985962	-304.432495	424.686707
3994.154633	-342.511963	-304.607819	425.855621
3994.158014	-343.388672	-303.672699	429.713043
3994.160892	-343.856201	-304.140259	431.875488
3994.164207	-344.031555	-303.964935	435.031555
3994.167517	-344.966675	-304.315613	436.726471
3994.170843	-345.142029	-304.198700	440.174744
3994.174213	-345.726440	-304.140259	443.564575
3994.177514	-346.778503	-304.958496	446.545288
3994.180417	-346.836975	-304.900055	449.058441
3994.183751	-347.421387	-304.900055	452.798950
3994.187093	-347.947388	-305.542969	455.721222
3994.190417	-348.590271	-306.010529	458.468140
3994.193752	-348.882507	-306.185852	462.442413
3994.197087	-349.116272	-306.711884	465.598450
3994.200422	-349.817627	-306.536530	468.696075
3994.203754	-349.525452	-307.062531	471.968994
3994.207087	-350.694336	-307.939240	475.125061
