time (s)	magX	magY	magZ
3469.916183	458.656921	172.540039	347.421967
3469.919522	452.929260	173.592041	338.479828
3469.922851	448.545898	174.936295	328.953247
3469.926184	442.935120	175.696075	319.075958
3469.929519	437.616577	177.274109	311.068970
3469.932868	432.473450	177.449448	302.126831
3469.936221	427.447144	177.274109	293.593781
3469.939516	422.713074	178.618347	285.586792
3469.942855	417.219177	179.378143	278.105804
3469.946183	412.660461	179.845703	269.338989
3469.949516	407.400330	179.787262	262.325531
3469.952848	402.198730	179.904160	255.136749
3469.956183	396.821716	180.430145	246.779083
3469.959514	392.730591	179.962585	240.057861
3469.962848	388.639404	179.670380	234.096436
3469.966182	382.677979	179.728806	227.258331
3469.969515	378.060791	179.144363	220.595551
3469.972848	373.677368	178.443024	215.043243
3469.976178	369.410889	178.910583	209.549377
3469.979533	364.852173	178.267685	203.178833
3469.982845	360.527161	177.683228	198.620102
3469.986184	356.319092	176.864990	192.834015
3469.990451	347.610779	175.929855	182.839844
3469.993770	343.870239	175.228516	178.748688
3469.997029	340.421936	174.468735	174.482178
3470.000366	336.272339	174.351837	170.098770
3470.003701	333.350098	173.475159	166.182922
3470.007051	329.317383	172.481583	162.734650
3470.009993	326.278198	172.189362	158.526581
3470.013288	322.654602	171.721802	154.844543
3470.016627	318.388062	170.202225	151.571594
3470.019957	314.939819	169.559326	147.947983
3470.023409	312.017517	168.974869	144.967255
3470.026593	308.861511	167.981293	141.986557
3470.029931	305.530090	167.513733	138.538269
3470.032849	302.374084	167.046173	136.492691
3470.036177	299.510193	166.637054	133.219757
3470.039504	296.178833	166.344818	129.303925
3470.042839	293.607239	165.292816	127.258324
3470.046177	290.743408	164.708359	124.511391
3470.049506	287.879639	164.357681	121.296898
3470.052840	284.898865	163.773224	119.192871
3470.056175	281.976624	162.253662	116.679718
3470.059506	279.755676	161.786087	114.517242
3470.062838	276.015198	161.376968	111.887192
3470.066197	274.729401	160.850967	109.724716
3470.069500	271.865601	160.324951	107.270020
3470.072836	269.293976	159.740494	104.464638
3470.076173	266.663940	159.039154	102.243713
3470.079509	265.027466	158.337799	100.139679
3470.082837	262.514343	158.104034	98.327873
3470.086169	260.410278	157.461136	95.697830
3470.089546	257.604919	157.052017	93.710693
3470.092844	255.968430	156.409119	91.957329
3470.096174	254.156631	155.064880	90.379303
3470.099503	251.994156	154.889542	88.859726
3470.102835	250.416138	154.772644	87.106369
3470.106170	247.961426	154.889542	86.346581
3470.109535	245.974274	153.253067	84.593216
3470.112831	245.039154	153.311523	83.599648
3470.116183	242.993576	152.902390	81.670952
3470.119503	241.181763	152.142609	80.618935
3470.122836	239.895966	152.201050	79.391579
3470.127516	237.090591	151.032135	77.345993
3470.130399	236.213898	151.207489	76.586205
3470.133776	234.168320	149.804794	75.417297
3470.137089	233.525421	149.921692	73.722382
3470.140417	232.298065	149.746338	74.306831
3470.143674	230.778488	149.629456	73.313263
3470.147004	230.194046	149.045013	71.618347
3470.149926	229.317352	148.869659	70.449440
3470.153294	228.616028	148.694336	70.566330
3470.156581	226.921112	148.402100	69.338982
3470.159930	226.687317	148.869659	68.929863
3470.163301	225.635300	147.583862	68.228516
3470.166157	224.524826	148.168320	67.936295
3470.169498	223.648163	147.700745	68.345406
3470.172825	222.888367	148.051422	67.527176
3470.176165	222.303909	148.051422	66.942719
3470.179498	221.310349	147.876099	66.007591
3470.182844	221.135010	148.285217	65.656921
3470.186168	219.966110	147.934540	65.014023
3470.189497	220.024551	147.992981	64.955582
3470.192829	218.972534	147.934540	64.429573
3470.196194	218.271179	148.226761	64.312683
3470.199486	217.920517	148.518997	64.312683
3470.202831	217.277618	148.343658	63.845116
3470.206165	217.043839	148.635880	63.260662
3470.209491	216.167160	148.460541	63.319107
3470.212823	215.991821	148.343658	63.085327
3470.216153	215.758041	148.285217	62.559319
3470.219490	215.991821	148.168320	62.617764
3470.222821	214.939804	148.986557	63.085327
3470.226155	214.998245	148.168320	62.851547
3470.229489	214.822922	148.635880	62.617764
3470.232826	214.355347	148.811218	61.624191
3470.236161	214.121567	149.512573	62.325539
3470.239505	214.180008	150.038574	61.565750
3470.242820	214.180008	150.097015	61.507301
3470.246150	214.004669	151.090591	61.741085
3470.249488	213.946228	150.681473	62.676208
3470.252817	213.887787	151.908829	62.734657
3470.256149	214.180008	152.551727	62.617764
3470.259522	214.121567	152.785507	63.085327
3470.262871	214.764465	153.136169	63.377556
3470.267432	215.348907	154.188202	63.143772
3470.270339	215.991821	154.188202	63.669781
3470.273659	216.693161	154.772644	64.254234
3470.277015	217.160721	155.590881	65.306252
3470.280386	218.271179	155.766205	65.481590
3470.283763	218.504974	156.818237	66.592049
3470.286594	219.790771	157.694916	67.702507
3470.289914	220.375214	158.688492	68.579193
3470.293237	220.550552	159.156052	69.338982
3470.296577	221.661026	159.915848	70.390999
3470.299900	222.479248	161.026306	70.741669
3470.303241	222.771484	161.435410	72.085915
3470.306594	224.349503	162.604324	74.014610
3470.309481	224.466400	163.364120	74.891289
3470.312813	225.985977	164.065460	76.703094
3470.316144	226.219757	165.175919	76.235535
3470.319483	227.096436	166.578598	77.462883
3470.322815	228.849792	167.046173	78.748680
3470.326148	229.726486	167.922852	79.333138
3470.329479	230.895370	168.974869	81.261833
3470.332814	231.596741	169.734665	81.670952
3470.336148	232.531860	171.371124	82.839859
3470.339475	233.934555	172.364700	83.833427
3470.342884	234.460541	173.299835	85.119225
3470.346154	235.921692	174.351837	85.879013
3470.349473	237.265915	175.929855	87.281700
3470.352813	238.960846	176.923431	89.210403
3470.356144	239.954407	178.443024	91.022202
3470.359477	241.240219	178.676804	92.366447
3470.362807	242.467575	180.371719	92.717117
3470.366143	244.688492	182.183517	95.464050
3470.369511	245.623611	183.644653	96.925186
3470.372813	247.435425	185.164230	98.269432
3470.376142	248.954987	186.333130	100.431908
3470.379479	250.474579	188.028046	102.769722
3470.382810	252.286392	189.313858	104.464638
3470.386144	253.689072	191.359436	106.101105
3470.389477	255.208664	192.586792	108.964935
3470.392806	256.903564	194.457047	110.659843
3470.396136	259.066040	196.093521	112.588539
3470.399469	261.286987	198.431320	115.803040
3470.402800	263.274109	199.483337	117.322617
3470.406133	265.319702	201.587372	120.011101
3470.409469	267.014587	203.516068	123.342484
3470.412860	270.053772	204.918762	127.316772
3470.416147	271.514893	207.081238	129.362366
3470.419476	273.911163	208.659256	133.278198
3470.424096	279.112793	212.984222	139.882523
3470.426995	280.924622	215.146698	143.038574
3470.430338	284.080627	217.367615	147.363525
3470.433679	286.827576	218.887207	150.870239
3470.437076	289.106934	221.692581	154.376984
3470.440415	292.555237	223.329041	158.526581
3470.443736	295.126831	225.023956	163.026886
3470.446985	297.639954	227.595551	166.650482
3470.449914	300.153137	229.874924	170.917007
3470.453228	303.133850	231.803619	175.241974
3470.456587	305.997681	234.141434	180.794281
3470.459886	309.504395	236.537689	185.119232
3470.463225	312.309753	238.817062	189.151947
3470.466558	314.705994	241.739334	194.938049
3470.469465	317.920532	244.135590	200.081238
3470.472801	320.258362	246.590302	205.282867
3470.476131	323.531250	249.220337	210.601410
3470.479466	326.628906	251.499710	216.329041
3470.482790	329.375793	254.480423	221.881348
3470.486149	332.473389	256.292236	227.667450
3470.489459	335.220337	259.039154	232.635315
3470.492794	338.317932	261.961426	239.765625
3470.496131	342.058472	264.649902	244.967255
3470.499466	344.571594	267.046173	251.805359
3470.502793	347.552307	270.085327	258.000580
3470.506152	350.883728	272.481598	264.721802
3470.509461	354.039734	274.936279	271.910583
3470.512794	356.903564	277.683228	279.683807
3470.516123	360.293396	280.547058	287.223236
3470.519462	362.748108	283.060211	294.762726
3470.522792	366.547058	286.391602	303.704834
3470.526126	370.462891	288.729401	312.237854
3470.529456	372.976013	291.417877	320.127991
3470.532790	376.716553	294.106384	329.596130
3470.536119	380.340149	297.145538	338.012268
3470.539457	382.911743	300.243134	348.006409
3470.542814	387.002930	302.580933	357.883698
3470.546124	389.632996	304.860321	368.462311
3470.549458	393.022827	308.016357	379.742249
3470.552803	396.237305	309.945038	390.203949
3470.556124	399.101135	312.750427	401.133240
3470.559460	402.490967	315.555817	412.880768
3470.562787	405.237854	317.426086	423.985382
3470.566124	407.692566	319.763885	436.784912
3470.569455	410.030396	322.160126	449.526001
3470.572788	412.601990	324.147278	462.325531
3470.576117	415.056702	326.134430	474.482178
3470.579452	417.920532	327.946228	487.690796
3470.582792	419.498535	329.232025	501.250153
3470.587509	423.180603	333.264740	528.602600
3470.590358	424.524841	334.784332	542.804810
3470.593728	425.752197	336.362366	558.526611
3470.597055	427.096436	336.946808	572.904175
3470.600391	428.557617	338.700165	587.281677
3470.603638	428.674438	338.641724	602.185303
3470.606984	429.492737	339.167725	618.140869
3470.610296	429.668030	339.693756	633.628845
3470.613214	429.492737	339.927521	649.409119
3470.616543	429.375793	340.102844	663.903564
3470.619867	428.674438	340.219757	680.618958
3470.623230	427.739319	339.284637	696.574524
3470.626572	426.278198	338.933960	712.646973
3470.629940	425.226196	338.057281	730.355896
3470.633213	422.654602	336.946808	746.662170
3470.636133	419.790771	335.544128	763.494446
3470.639450	418.037415	334.024536	781.144897
3470.642781	414.705994	332.621857	797.860291
3470.646105	411.608398	329.582703	814.575684
3470.649446	407.049683	327.478668	831.817078
3470.652782	403.484497	324.147278	850.110474
3470.656109	398.341309	320.348328	867.644043
3470.659451	394.074829	316.607819	885.353027
3470.662777	388.288696	312.516663	903.412659
3470.666108	381.859741	308.191681	921.530640
3470.669446	375.313843	303.399170	938.362915
3470.672781	367.774414	297.788422	957.007080
3470.676110	360.760925	291.885437	974.540649
3470.679454	352.987732	285.924011	992.132690
3470.682778	344.045593	278.501465	1009.666260
3470.686111	334.518982	271.780243	1027.959717
3470.689437	325.810608	265.000580	1045.727173
3470.692772	315.582703	257.402710	1063.085327
3470.696107	304.945618	248.051422	1079.859131
3470.699442	294.542358	238.875504	1094.295166
3470.702781	282.794861	230.225601	1110.192383
3470.706111	270.404419	220.406769	1124.511353
3470.709441	259.416748	210.120392	1139.239624
3470.712774	246.266510	199.892456	1153.266479
3470.716108	233.642319	189.196960	1166.708984
3470.719443	220.316772	178.618347	1180.092896
3470.722796	206.523666	167.338394	1192.074219
3470.726110	191.970779	156.000000	1204.055542
3470.729438	177.476318	143.551147	1214.458740
3470.732770	163.157211	131.745178	1224.803589
3470.736106	147.493866	119.413208	1233.336670
3470.739432	132.239624	107.373466	1241.928101
3470.742773	115.758034	94.515488	1249.993530
3470.747470	84.431328	68.565750	1262.559326
3470.750445	68.066628	56.000000	1269.572754
3470.753698	52.344826	42.908241	1272.261230
3470.756960	35.512566	28.939800	1277.345947
3470.760287	18.504969	16.374050	1279.508423
3470.763612	1.906488	3.106955	1281.261841
3470.767029	-14.750439	-10.043251	1283.190552
3470.770308	-31.173584	-23.661022	1284.184082
3470.773212	-47.713615	-36.869667	1283.365845
3470.776552	-63.727646	-50.136757	1282.489136
3470.779924	-79.800117	-62.936295	1280.443604
3470.783185	-96.690819	-75.852715	1276.586182
3470.786528	-111.711288	-89.645828	1272.728882
3470.789858	-127.316193	-102.971359	1269.222046
3470.793186	-142.687317	-115.478668	1263.786621
3470.796095	-158.876678	-128.278198	1256.714722
3470.799431	-173.721802	-140.843948	1250.987183
3470.802803	-188.917587	-153.468155	1243.623047
3470.806096	-202.944473	-165.040329	1234.154907
3470.809441	-216.445343	-177.664520	1226.381592
3470.812769	-230.589127	-189.470490	1216.855103
3470.816099	-244.382248	-200.925766	1206.393311
3470.819431	-257.357117	-211.913498	1194.295166
3470.822759	-269.864441	-222.258331	1182.372314
3470.826095	-282.897705	-233.421387	1170.390991
3470.829424	-294.411438	-243.298645	1158.760376
3470.832755	-306.100525	-253.701935	1143.739868
3470.836118	-317.380493	-263.754517	1130.122070
3470.839430	-327.959106	-273.339569	1116.387451
3470.842765	-337.427246	-281.814148	1101.250122
3470.846123	-347.538269	-290.113373	1085.995972
3470.849427	-357.006409	-297.945068	1070.741699
3470.852756	-366.240784	-305.776733	1055.604370
3470.856092	-374.364685	-312.790192	1038.947388
3470.859423	-382.313232	-320.095856	1021.939758
3470.862758	-389.735840	-326.758636	1005.399719
3470.866096	-396.398560	-333.246063	988.918152
3470.869425	-403.119812	-338.798370	973.313232
3470.872757	-409.081238	-343.941559	956.481018
3470.876088	-414.224426	-348.792511	939.707214
3470.879424	-419.601379	-353.059052	923.517822
3470.882759	-423.867920	-357.383972	906.334900
3470.886088	-428.251282	-361.358276	889.911743
3470.889443	-432.108704	-364.455872	874.540649
3470.892752	-435.557007	-368.021057	858.877258
3470.896090	-438.479248	-370.592651	842.395691
3470.899421	-441.343079	-373.748688	826.089417
3470.903698	-446.953796	-377.372284	795.288757
3470.906940	-448.181213	-379.067200	780.151367
3470.910277	-449.876099	-380.469910	764.897156
3470.913623	-450.752808	-382.164825	750.285767
3470.916956	-452.155457	-383.450623	735.148437
3470.920288	-453.382812	-384.210419	720.478638
3470.923737	-453.733459	-384.970184	705.165955
3470.926526	-454.142639	-385.613068	690.671509
3470.929870	-453.967285	-386.606659	675.826416
3470.933217	-454.201050	-386.197540	661.156616
3470.936510	-453.441284	-385.905334	647.363525
3470.939852	-453.324341	-386.431335	632.518433
3470.943174	-452.213928	-385.788452	620.186462
3470.946509	-451.337219	-385.671539	607.036255
3470.949413	-450.577454	-385.496185	593.944458
3470.952746	-448.765686	-384.619537	581.028076
3470.956081	-447.304504	-383.450623	568.111633
3470.959413	-445.609558	-382.924622	555.253662
3470.962752	-444.206909	-381.872559	541.460571
3470.966079	-443.096436	-380.995911	528.836365
3470.969421	-440.641724	-380.060791	517.381104
3470.972743	-438.829956	-378.950317	505.750427
3470.976103	-436.433655	-377.313873	494.528931
3470.979411	-434.037415	-376.378723	482.547638
3470.982749	-431.524292	-375.268280	471.618347
3470.986100	-428.777283	-372.696655	461.916412
3470.989418	-426.614868	-371.586182	451.746918
3470.992745	-423.926331	-370.066650	441.460541
3470.996076	-421.413208	-368.021057	431.817047
3470.999406	-419.075378	-366.793701	421.647583
3471.002747	-416.620667	-364.572784	412.880768
3471.006111	-413.990662	-362.351837	405.107513
3471.009410	-411.243713	-361.299835	395.931610
3471.012742	-408.847473	-358.611328	387.866150
3471.016082	-406.217407	-357.442444	379.976044
3471.019436	-403.645813	-355.046173	373.079468
3471.022746	-401.541809	-353.409698	364.488007
3471.026077	-398.736450	-351.130341	358.000549
3471.029411	-395.755737	-349.727631	350.402679
3471.032743	-393.943909	-347.857391	343.506134
3471.036074	-390.495605	-345.519562	337.544708
3471.039403	-387.748657	-343.357086	330.998840
3471.042741	-385.703064	-342.421967	325.095856
3471.046071	-383.482178	-340.201050	319.309753
3471.049434	-380.793640	-338.447693	313.056091
3471.052742	-377.871399	-336.635895	307.912903
3471.056074	-376.001160	-335.525421	302.477478
3471.060320	-370.799561	-331.609589	291.957336
3471.063603	-368.461731	-329.680878	286.931030
3471.066914	-366.065430	-327.985962	280.852692
3471.070271	-363.493896	-326.524841	276.293976
3471.073610	-361.506714	-323.953247	271.384583
3471.076940	-358.350708	-322.258331	267.293396
3471.079899	-355.720642	-320.914093	263.202209
3471.083194	-354.084167	-319.219177	257.591461
3471.086512	-351.863220	-318.400940	253.675629
3471.089829	-349.466980	-316.004669	249.701324
3471.092767	-347.129150	-314.835785	246.077728
3471.096068	-345.083557	-313.374634	240.992981
3471.099398	-342.628906	-312.205719	236.551147
3471.102732	-340.466431	-310.744598	232.810638
3471.106080	-338.070129	-309.984802	230.239044
3471.109401	-335.966125	-307.997681	226.615417
3471.112732	-334.037415	-307.062531	222.758026
3471.116067	-331.699585	-305.192291	219.601990
3471.119402	-329.595581	-304.081818	216.329041
3471.122729	-327.140869	-302.445343	213.640564
3471.126064	-325.738159	-301.393341	210.367615
3471.129393	-323.458801	-300.575104	208.263580
3471.132729	-321.880737	-299.990631	205.341309
3471.136084	-320.361206	-299.464630	203.061951
3471.139392	-318.841614	-298.237274	199.964355
3471.142730	-316.445374	-297.009918	198.503204
3471.146064	-315.393311	-296.074799	196.808289
3471.149397	-314.224426	-296.074799	193.944473
3471.152734	-312.178833	-294.555206	191.957336
3471.156071	-311.302185	-293.970795	189.210388
3471.159396	-309.665710	-293.035645	187.983032
3471.162732	-307.853882	-292.042084	186.463470
3471.166098	-307.152527	-291.983643	185.294556
3471.169393	-305.632996	-290.931610	183.424316
3471.172730	-304.405640	-290.639374	181.320282
3471.176056	-303.762695	-289.879608	180.618927
3471.179414	-302.593811	-289.587402	179.742249
3471.182723	-301.483337	-289.645813	178.514908
3471.186058	-300.548218	-289.236694	178.398010
3471.189390	-299.671509	-288.710693	177.579773
3471.192729	-298.151978	-288.301575	175.651077
3471.196932	-296.866150	-287.834015	173.897705
3471.200365	-296.573914	-287.483337	173.137939
3471.203650	-294.995911	-287.600250	172.904144
3471.206982	-293.593201	-287.600250	171.443008
3471.210276	-293.476318	-287.308014	171.559906
3471.213573	-292.482727	-287.950897	170.215668
3471.216484	-291.956726	-287.950897	169.572754
3471.219812	-291.255371	-287.950897	169.105194
3471.223153	-290.612488	-288.184692	168.871414
3471.226478	-290.144958	-288.243134	168.637634
3471.229833	-289.092896	-289.119812	168.812973
3471.232720	-289.268250	-289.587402	168.228516
3471.236055	-288.157776	-289.587402	167.819397
3471.239392	-287.748718	-289.587402	167.468719
3471.242718	-287.105774	-289.645813	168.754517
3471.246061	-286.813538	-290.405609	168.345413
3471.249385	-285.820007	-290.522522	167.994736
3471.252749	-285.995300	-291.749847	167.819397
3471.256055	-285.410889	-291.516083	168.228516
3471.259382	-285.644653	-292.217407	169.046753
3471.262714	-284.358887	-292.509644	168.286957
3471.266055	-284.534180	-293.912323	168.696075
3471.269383	-283.715942	-294.321442	169.280533
3471.272712	-283.599060	-294.847443	170.449432
3471.276054	-283.365295	-296.425507	170.917007
3471.279383	-283.657471	-296.600830	171.735229
3471.282717	-283.482178	-297.477478	172.144348
3471.286046	-283.073059	-298.938629	172.728806
3471.289383	-283.540649	-299.873779	174.189941
3471.292718	-283.891296	-300.633545	175.183517
3471.296059	-283.715942	-301.627136	176.352417
3471.299376	-283.715942	-302.854462	177.287552
3471.302720	-283.891296	-303.964935	178.281128
3471.306047	-284.417297	-305.835175	179.566925
3471.309385	-285.060181	-306.945648	181.787842
3471.312730	-285.177063	-308.699005	184.067200
3471.316049	-285.118652	-310.101685	185.177673
3471.319380	-285.703125	-311.738159	187.398590
3471.322713	-286.287537	-312.965515	188.742828
3471.326049	-286.404419	-314.660431	191.489777
3471.330671	-287.222656	-318.108704	196.048508
3471.333632	-287.748718	-319.511414	197.275848
3471.336918	-288.742249	-322.141449	199.379883
3471.340414	-288.683838	-323.661041	202.828156
3471.343656	-289.151367	-325.122162	204.464630
3471.346966	-289.385132	-327.343079	207.386902
3471.350223	-290.028015	-329.388641	209.257141
3471.353157	-290.320251	-330.908234	211.419647
3471.356461	-290.787842	-333.070709	214.341888
3471.359797	-291.430725	-335.174774	216.738159
3471.363145	-292.424316	-338.213898	219.660431
3471.366463	-292.307434	-339.558167	222.641144
3471.369375	-292.599670	-341.837524	225.446503
