time (s)	magX	magY	magZ
3523.244202	-180.793686	-472.112244	924.219177
3523.247521	-166.591461	-469.365265	943.330811
3523.250856	-151.863235	-465.975433	961.916382
3523.254185	-136.609009	-461.708923	979.450073
3523.257519	-120.419647	-456.682648	996.983643
3523.260845	-104.697830	-451.188751	1013.874390
3523.264183	-87.456467	-443.123291	1029.771484
3523.267520	-69.864410	-436.519012	1046.369995
3523.270846	-52.097023	-428.862671	1059.929321
3523.274183	-33.803623	-420.271179	1072.319702
3523.277511	-15.568676	-411.796631	1085.177612
3523.280906	2.841614	-401.802460	1097.100464
3523.284183	22.128580	-392.626526	1107.094727
3523.287535	42.350670	-382.047943	1116.913574
3523.290854	62.981880	-370.300385	1123.342407
3523.294179	82.619522	-359.195801	1130.355957
3523.297512	102.841614	-347.506714	1134.914551
3523.300848	123.063705	-336.226746	1139.590332
3523.304178	142.876678	-323.018097	1142.863159
3523.307514	163.157211	-310.452362	1143.330811
3523.310841	182.911743	-297.068390	1143.623047
3523.314177	202.666275	-284.268829	1143.856812
3523.317510	221.953232	-270.943329	1141.519043
3523.320845	241.941544	-257.150208	1137.252441
3523.324176	261.111633	-244.000000	1132.343018
3523.327510	279.755676	-230.615997	1127.316772
3523.330856	297.756836	-216.822922	1120.537109
3523.334177	315.582703	-203.789597	1111.887207
3523.337512	333.116272	-190.230286	1103.529419
3523.340846	351.000549	-176.963165	1092.249512
3523.345105	383.203979	-150.195206	1069.923462
3523.348399	398.925781	-136.635880	1056.539551
3523.351691	413.946228	-123.427231	1041.402100
3523.355026	428.031555	-111.095276	1025.797241
3523.358376	440.889526	-97.419052	1010.016968
3523.361727	453.981323	-85.028633	993.652283
3523.365113	466.196411	-72.755119	976.644653
3523.367995	477.417908	-59.897141	958.994141
3523.371282	487.821167	-48.091179	941.285156
3523.374603	497.640015	-35.700760	922.816467
3523.377935	507.108093	-24.303917	904.639954
3523.381267	515.173584	-12.731739	885.586792
3523.384591	522.245483	-1.685566	866.007568
3523.387931	528.908264	9.535942	847.012817
3523.390834	534.109863	20.056107	827.550537
3523.394167	538.785522	29.991816	807.912903
3523.397505	542.526001	40.921097	788.742859
3523.400836	546.441833	50.447689	769.514282
3523.404172	548.487427	59.448273	750.110474
3523.407500	550.708374	68.039742	730.648132
3523.410854	552.403259	76.455872	711.945679
3523.414168	553.221558	84.638222	693.184692
3523.417504	553.572205	93.054352	674.131531
3523.420836	553.046204	99.892456	655.019897
3523.424166	551.818848	107.431908	637.427856
3523.427526	550.357666	113.977791	619.485046
3523.430845	549.071899	119.763878	601.367004
3523.434168	546.675659	125.959091	584.300964
3523.437507	544.396301	130.284042	566.825867
3523.440837	541.357117	135.661011	549.233826
3523.444166	538.084167	140.044418	532.518433
3523.447502	534.285217	144.369385	516.562805
3523.450833	530.778503	147.700745	499.672089
3523.454201	527.213318	151.558151	485.060760
3523.457502	522.713074	155.298645	469.280518
3523.460837	518.212769	158.162476	454.435425
3523.464168	513.595520	160.850967	440.116272
3523.467498	508.803040	162.604324	425.738739
3523.470828	503.952087	164.649902	412.296326
3523.474162	497.873718	165.585037	397.743408
3523.477494	492.613708	167.455276	384.534760
3523.480829	487.587341	168.916412	372.495026
3523.484169	482.151917	170.026886	359.344818
3523.488845	471.748718	170.611343	335.440674
3523.491771	466.547058	172.014023	324.043823
3523.495011	460.176514	172.364700	312.939209
3523.498385	455.033325	172.481583	303.003510
3523.501677	448.487427	173.007599	292.424896
3523.505050	442.701355	172.481583	281.320282
3523.508376	437.324402	173.358261	270.741669
3523.511272	430.427856	172.481583	261.624176
3523.514609	424.817078	172.247803	251.571594
3523.517944	419.147888	172.306259	242.804779
3523.521307	413.069580	171.312683	233.921082
3523.524582	407.166565	171.195801	225.446503
3523.527919	401.789612	170.962021	218.140839
3523.530827	396.120422	170.903564	209.607849
3523.534156	390.392761	169.676208	201.893036
3523.537493	384.314453	169.442429	194.470490
3523.540860	378.236145	168.974869	187.164825
3523.544159	372.508484	168.565750	179.625366
3523.547492	367.482178	167.104614	172.845703
3523.550823	361.988281	166.753937	166.475159
3523.554153	356.669800	166.344818	160.805969
3523.557494	351.234375	165.701935	154.961426
3523.560819	345.682068	164.416122	150.110458
3523.564158	340.655762	163.656342	144.032135
3523.567490	335.512573	163.013443	138.888947
3523.570820	330.720032	161.786087	133.687317
3523.574151	325.635315	161.084747	128.661011
3523.577484	320.492126	159.448273	123.751602
3523.580817	317.102295	158.746933	119.952652
3523.584228	311.491516	157.811798	115.510811
3523.587490	307.517273	156.935120	111.887192
3523.590826	302.607849	155.766205	106.919342
3523.594150	298.399780	155.006424	103.587952
3523.597485	294.834595	153.194611	99.964348
3523.600819	291.269409	152.025711	96.457626
3523.604148	287.236694	150.389252	93.126236
3523.607486	282.911743	149.804794	89.619522
3523.610814	279.521912	148.168320	86.405022
3523.614152	275.547607	147.174744	84.300987
3523.617483	272.157837	145.772064	81.028053
3523.620813	268.417297	144.836945	77.462883
3523.624151	265.553467	143.609589	75.300407
3523.628388	258.949158	140.921097	68.345406
3523.631710	255.909988	139.927521	66.884277
3523.635079	253.455276	138.992401	63.903561
3523.638420	249.773239	137.531281	61.565750
3523.641674	246.675644	136.420807	58.643478
3523.644994	243.753357	135.544128	56.422554
3523.648326	241.006424	134.609009	54.727642
3523.651258	238.259506	133.556992	51.863819
3523.654567	235.044998	132.212738	49.409115
3523.657902	232.531860	131.160721	47.363525
3523.661254	230.135590	130.167145	46.603737
3523.664613	227.622437	129.173584	44.032143
3523.667956	224.817062	128.530685	42.512566
3523.670853	222.187027	127.478668	41.226768
3523.674152	219.966110	126.777321	40.057858
3523.677475	217.628296	125.783752	38.187607
3523.680809	215.699585	125.140854	37.252480
3523.684142	213.244888	124.439507	35.791348
3523.687474	210.673294	123.387497	34.739330
3523.690805	209.212158	123.095261	32.576855
3523.694142	207.108124	122.218582	31.583279
3523.697477	205.062531	121.809464	30.589710
3523.700811	203.133835	120.815895	29.128574
3523.704143	201.614258	120.289886	28.368786
3523.707472	199.510223	120.406776	26.732319
3523.710807	197.289307	119.237869	25.680302
3523.714172	196.529510	118.594971	24.862068
3523.717472	194.074814	118.945641	24.043831
3523.720805	192.964355	117.542953	23.050262
3523.724137	191.152542	117.835182	22.524250
3523.727469	189.749847	117.075394	22.290470
3523.730806	189.340744	117.075394	21.121563
3523.734135	187.704269	116.490936	20.127995
3523.737466	186.126251	116.081825	19.134422
3523.740812	184.489777	115.614258	19.192871
3523.744165	183.613083	115.029808	17.790176
3523.747474	182.677963	114.211571	17.848625
3523.750804	181.333725	114.386909	17.088833
3523.754138	180.106369	112.925774	17.205723
3523.757483	178.820572	112.516655	16.329044
3523.760800	178.411453	112.633545	15.919926
3523.764133	177.242538	112.165985	14.984798
3523.767470	176.541199	111.581528	14.166565
3523.770802	175.547638	110.880188	13.056107
3523.774159	174.963181	110.587959	12.880768
3523.778814	172.976044	109.945061	11.887199
3523.781724	172.391586	110.178841	11.653419
3523.785058	172.391586	109.594391	11.244297
3523.788429	171.047348	109.126823	10.835182
3523.791645	170.053772	108.483925	10.835182
3523.794985	169.703094	109.419052	11.185856
3523.798336	169.293976	108.483925	10.133839
3523.801226	168.943314	108.425484	10.133839
3523.804549	168.300400	108.250145	9.140266
3523.807895	167.540619	108.191704	9.549385
3523.811270	167.248398	108.016365	10.016949
3523.814595	166.897720	107.899475	9.315605
3523.817484	166.897720	107.782578	8.906483
3523.820793	166.021042	108.133255	8.497368
3523.824160	166.137939	107.782578	8.731144
3523.827469	165.962585	107.665688	8.731144
3523.830811	165.845703	107.782578	8.322029
3523.834126	164.676804	108.016365	7.854469
3523.837455	164.559906	109.360611	7.328461
3523.840792	165.202805	108.776154	7.562241
3523.844134	165.202805	109.594391	8.088249
3523.847463	165.144363	109.419052	8.088249
3523.850791	164.793686	109.068375	7.094673
3523.854128	164.209244	110.003502	7.562241
3523.857464	164.676804	110.237282	8.029800
3523.860807	165.027466	110.646408	8.263580
3523.864126	164.852127	110.821739	8.555813
3523.867460	165.319702	110.587959	8.672703
3523.870793	165.027466	111.055519	7.912910
3523.874122	164.910583	111.581528	8.497368
3523.877460	165.319702	111.581528	8.555813
3523.880789	165.904160	111.990646	8.731144
3523.884124	166.722382	111.932205	8.731144
3523.887455	166.254822	112.925774	8.555813
3523.890786	166.605499	113.276451	9.432495
3523.894126	167.189941	113.451782	9.724720
3523.897450	167.891296	113.685562	9.490936
3523.900783	168.534180	114.328461	10.835182
3523.904150	168.943314	114.679138	10.952072
3523.907456	169.586212	114.737579	11.711861
3523.910782	170.579788	115.322029	11.653419
3523.914114	171.573349	115.672707	11.536526
3523.917464	171.982468	115.906487	12.471653
3523.920785	172.450027	116.549385	13.056107
3523.924116	173.092926	117.484512	11.828751
3523.927451	174.203384	118.361191	13.523670
3523.932073	176.365860	118.828751	14.225014
3523.935472	176.774979	119.705437	14.049675
3523.938416	178.060791	120.289886	14.692574
3523.941695	179.463470	121.225014	16.387486
3523.945041	180.164810	122.160141	16.971939
3523.948321	181.684402	123.095261	17.322613
3523.951639	182.561081	123.504387	18.023964
3523.954963	182.970200	124.147278	18.959087
3523.958318	184.665115	125.140854	19.309761
3523.961230	185.658676	126.485092	19.426651
3523.964555	187.236710	127.303329	20.420219
3523.967894	188.230270	128.296906	21.706017
3523.971234	189.048508	129.582703	22.232025
3523.974542	190.977203	130.284042	23.342487
3523.977868	192.555222	131.978958	24.336060
3523.981207	192.964355	132.797195	25.095848
3523.984115	194.367035	134.082977	26.673874
3523.987450	196.237289	135.076569	27.141434
3523.990798	198.341324	136.479248	28.661015
3523.994115	200.036240	137.531281	29.187023
3523.997443	201.322037	139.109283	30.355927
3524.000779	203.075394	140.453522	31.933956
3524.004109	204.536530	142.089996	33.336643
3524.007440	206.815903	143.784912	35.031559
3524.010771	209.329041	144.427811	36.668026
3524.014111	211.257751	146.005844	37.077145
3524.017444	213.186447	147.350098	39.590294
3524.020774	215.290482	149.161896	40.466972
3524.024113	217.511398	150.739929	43.623024
3524.027441	219.732315	152.434830	44.324371
3524.030810	222.829926	154.305084	46.369957
3524.034132	224.232620	155.473984	48.181763
3524.037437	227.213333	156.584457	49.350670
3524.040772	229.258926	158.396255	51.454700
3524.044103	232.298065	160.149628	54.026299
3524.047451	235.161896	161.610748	57.182346
3524.050769	237.382812	163.364120	58.701927
3524.054104	240.129761	165.526596	60.396843
3524.057438	243.285797	166.812393	63.085327
3524.060772	245.798950	169.033310	66.299820
3524.064101	249.364120	170.552887	68.520744
3524.067440	251.585037	172.423141	70.449440
3524.070769	254.799530	174.468735	74.599060
3524.074101	257.838684	176.514313	77.579773
3524.077452	260.585632	178.326126	80.735825
3524.080772	264.326111	179.611923	83.365868
3524.084097	267.014587	182.066620	86.755692
3524.087437	270.404419	184.696671	89.327293
3524.090766	273.034485	186.625366	93.126236
3524.095051	279.755676	191.593216	101.074806
3524.098359	282.619507	193.346573	104.815308
3524.101621	286.593811	196.677963	108.263580
3524.104943	289.749878	199.132675	112.997658
3524.108272	292.847473	201.996490	116.562828
3524.111640	296.821716	204.451187	121.121567
3524.114595	300.328491	206.789001	126.206314
3524.117886	303.835205	209.243713	131.466385
3524.121252	308.452393	212.399765	136.025116
3524.124559	312.368225	215.906494	141.343658
3524.127863	315.933350	219.004089	147.071304
3524.131189	319.381653	221.517242	152.974274
3524.134526	323.414368	224.790176	158.585037
3524.137853	328.090027	227.770889	164.254242
3524.140764	332.005859	230.810043	170.449432
3524.144093	336.097046	232.972534	177.346008
3524.147431	340.305115	236.245483	183.716553
3524.150757	344.571594	238.407928	191.431335
3524.154095	349.247192	241.563995	198.035645
3524.157447	353.689087	244.603149	205.691986
3524.160758	358.656921	247.291656	213.289886
3524.164094	363.390991	250.155457	222.056702
3524.167427	367.189941	252.668610	229.713043
3524.170759	371.690247	255.766220	238.246063
3524.174093	377.184082	258.220947	247.071289
3524.177426	381.567505	261.143188	256.597900
3524.180797	387.002930	264.007019	265.306244
3524.184094	391.561646	266.987732	275.300415
3524.187424	395.886597	269.617767	285.060760
3524.190760	401.088257	272.130920	295.288727
3524.194092	405.997681	274.410278	306.042664
3524.197426	410.965515	276.864990	316.095276
3524.200794	414.822937	279.495056	327.141449
3524.204088	418.972534	281.248413	338.713593
3524.207423	423.355957	284.346008	349.876678
3524.210760	427.564026	286.625366	362.442413
3524.214086	432.122742	289.430756	375.183502
3524.217427	435.746338	291.184113	387.515472
3524.220756	439.662170	292.995911	401.483917
3524.224089	443.694946	295.684387	414.634125
3524.227421	447.493835	297.379303	428.018127
3524.230752	450.474609	299.658661	443.213898
3524.234089	453.163025	301.587372	457.474579
3524.237415	456.377563	303.457642	471.852112
3524.240756	459.358276	305.035645	487.340149
3524.245020	463.566345	308.834595	518.549927
3524.248269	465.962585	309.652832	535.674438
3524.251610	467.423706	311.113953	552.097595
3524.254951	468.066650	311.990662	569.864990
3524.258292	469.469299	312.750427	587.106323
3524.261666	470.053772	313.101105	604.698364
3524.265044	470.287537	313.919342	622.758057
3524.267866	469.936890	313.685577	639.999390
3524.271195	469.644653	313.159546	658.468140
3524.274542	469.352417	312.984222	678.047363
3524.277836	467.131531	311.406189	695.814697
3524.281172	465.962585	310.178833	714.458801
3524.284511	463.858582	308.717712	733.336609
3524.287425	460.994751	306.730560	751.980713
3524.290750	458.481628	304.217438	771.793701
3524.294078	455.325562	301.821136	789.619507
3524.297412	451.935730	298.782013	809.198669
3524.300747	447.493835	295.216827	829.420776
3524.304082	442.818237	291.008759	848.357056
3524.307414	437.558167	286.625366	867.059570
3524.310746	431.772034	281.949707	886.580383
3524.314082	425.693726	276.514313	905.925781
3524.317418	418.972534	270.903564	924.569824
3524.320747	411.666870	263.948578	943.739929
3524.324078	404.419617	257.928711	962.734619
3524.327433	395.769714	250.506134	981.495605
3524.330747	387.412048	243.083588	998.912354
3524.334075	377.417847	234.901230	1018.082336
3524.337411	367.189941	226.660431	1037.135620
3524.340741	356.202209	218.770309	1054.727661
3524.344076	345.156067	209.652832	1071.618286
3524.347449	333.525452	199.658676	1086.697266
3524.350750	320.842773	189.664520	1103.412598
3524.354077	307.984802	180.547043	1118.082397
3524.357408	294.483948	170.085327	1131.875488
3524.360756	280.690796	159.565170	1147.305054
3524.364076	265.787292	148.635880	1160.221558
3524.367404	251.000580	137.998840	1171.910645
3524.370737	236.038574	126.660431	1183.541260
3524.374078	219.206314	115.789597	1194.704224
3524.377410	203.016953	104.626534	1204.055542
3524.380736	186.944473	92.995911	1214.400269
3524.384070	169.936874	81.131500	1221.998291
3524.388327	134.518997	57.870251	1236.083496
3524.391700	117.452950	46.064289	1241.168335
3524.394921	99.919342	33.907654	1246.486816
3524.398250	81.099945	20.991232	1251.805298
3524.401583	63.917007	9.302160	1253.675537
3524.404975	45.623611	-2.737583	1255.721191
3524.408272	27.447107	-15.420223	1256.656250
3524.411206	9.796610	-27.635303	1257.708374
3524.414524	-7.853889	-40.201050	1256.714722
3524.417858	-25.504383	-52.591469	1255.078369
3524.421161	-43.622444	-65.215660	1252.565063
3524.424499	-60.045586	-76.846291	1249.409180
3524.427838	-77.053185	-89.119812	1244.791870
3524.430734	-93.534775	-100.984222	1240.233154
3524.434092	-109.899475	-112.731735	1233.687378
3524.437403	-126.088837	-124.888367	1227.433594
3524.440727	-142.161301	-136.869659	1220.478638
3524.444068	-156.831100	-149.143188	1212.763916
3524.447406	-172.026886	-160.247818	1203.529419
3524.450737	-186.229111	-171.527756	1194.119751
3524.454067	-200.665115	-182.281723	1184.417847
3524.457400	-214.282867	-192.918762	1172.962646
3524.460730	-226.965515	-202.737579	1161.273560
3524.464063	-239.297470	-212.030396	1149.876709
3524.467398	-252.097000	-222.375214	1137.193970
3524.470750	-263.844543	-231.434265	1123.751587
3524.474056	-275.299805	-240.142609	1110.192383
3524.477412	-286.229126	-248.500275	1098.210937
3524.480733	-297.158386	-255.981293	1082.430786
3524.484065	-306.801880	-264.046753	1068.403809
3524.487396	-316.562256	-271.703125	1053.909424
3524.490733	-325.971924	-278.482758	1038.947388
3524.494069	-334.621826	-284.970184	1022.816467
3524.497397	-342.979553	-290.931610	1006.627075
3524.500726	-350.928101	-296.425507	991.431335
3524.504063	-359.168884	-301.217987	976.060242
3524.507397	-366.065430	-305.835175	960.630615
3524.510731	-372.202209	-310.218567	945.259521
3524.514066	-378.689697	-313.491516	929.128601
3524.517389	-384.534241	-318.050262	913.289856
3524.520741	-389.677368	-320.972534	896.574524
3524.524059	-395.814148	-323.894806	880.618896
3524.527389	-399.671570	-327.226196	865.189331
3524.530719	-403.412048	-329.096436	850.110474
3524.534055	-407.035645	-331.142029	834.330200
3524.537390	-411.126831	-333.246063	818.433044
3524.542070	-416.796021	-336.402130	788.976624
3524.544995	-419.367615	-337.278778	774.657532
3524.548233	-421.004089	-338.915253	759.870850
3524.551570	-423.225037	-340.084167	745.317932
3524.554932	-424.919922	-340.727051	730.414368
3524.558268	-426.030396	-341.136169	716.095215
3524.561645	-427.082397	-341.895966	701.951477
3524.564529	-427.608398	-341.895966	688.976624
3524.567851	-428.718872	-342.188202	674.540588
3524.571142	-428.718872	-342.772675	661.799500
3524.574477	-428.017517	-342.363525	648.883057
3524.577828	-428.134460	-342.305084	635.615967
3524.581141	-428.017517	-342.305084	622.933350
3524.584056	-427.316162	-342.305084	610.542969
3524.587384	-426.147278	-341.895966	598.737000
3524.590715	-424.627686	-340.610168	587.573914
3524.594050	-423.400330	-340.960846	575.768005
3524.597388	-422.991211	-340.610168	564.897156
3524.600747	-421.939209	-339.616608	554.026306
3524.604045	-419.835205	-338.973694	541.168335
3524.607385	-417.906494	-337.863251	530.531250
3524.610713	-416.679138	-336.577454	520.887817
3524.614047	-414.575073	-336.168335	510.426056
3524.617381	-413.230835	-335.116302	499.964355
3524.620752	-411.419067	-333.713623	490.846863
3524.624048	-410.074829	-332.603149	480.677399
3524.627385	-407.737000	-331.609589	471.676788
3524.630721	-405.282288	-330.206909	462.851562
3524.634048	-403.002930	-329.271790	453.909393
3524.637382	-401.366455	-327.284637	445.142609
3524.640715	-400.255981	-325.472809	436.960236
3524.644049	-398.035034	-323.953247	428.719452
3524.647378	-395.931030	-322.316772	421.764435
3524.650720	-393.943909	-321.089417	414.049683
3524.654043	-391.489197	-319.336060	406.451782
3524.657377	-389.735840	-317.699585	399.146118
3524.660711	-387.631775	-316.530701	391.723541
3524.664044	-385.352417	-314.368225	385.586792
3524.667380	-383.540649	-312.731720	378.281128
3524.670712	-381.495056	-310.861481	372.845703
3524.674048	-380.150818	-308.757446	366.124481
3524.677374	-377.637634	-306.887207	359.753937
3524.680713	-375.884277	-305.776733	354.260071
3524.684045	-374.189392	-304.257172	348.766205
3524.688321	-369.864441	-300.691986	337.953827
3524.691562	-367.351257	-299.523071	332.518402
3524.694905	-365.597900	-298.587952	327.959656
3524.698225	-363.435425	-296.483917	322.348907
3524.701579	-361.740479	-295.782562	318.257751
3524.704915	-359.987122	-293.970795	313.406769
3524.707821	-357.707764	-292.801880	309.140259
3524.711167	-355.311523	-291.691406	305.107513
3524.714487	-353.324341	-291.048523	301.483917
