time (s)	magX	magY	magZ
4133.824127	90.747513	383.035065	-452.793671
4133.827460	92.968445	382.859741	-443.851532
4133.830792	94.604904	382.509064	-435.201630
4133.834130	97.351837	382.450623	-425.791962
4133.837460	98.696091	381.515503	-415.914642
4133.840793	99.981888	381.281738	-407.264771
4133.844123	101.793686	380.229706	-399.023987
4133.847454	103.196381	379.703674	-390.549408
4133.850829	104.306839	378.534790	-382.425476
4133.855478	106.644653	376.021637	-365.359436
4133.858395	107.696671	374.677399	-357.878418
4133.861726	108.982468	372.982483	-351.157227
4133.864994	109.683807	371.346008	-343.559326
4133.868304	111.203384	369.241974	-336.195221
4133.871635	111.846283	367.137939	-329.006409
4133.875010	112.722977	365.676788	-321.992981
4133.878331	113.599640	363.280548	-315.856232
4133.881248	114.651657	361.702515	-309.251892
4133.884565	115.236115	359.890717	-301.946228
4133.887904	116.112808	357.377563	-295.692596
4133.891240	117.106369	355.273529	-289.672699
4133.894584	118.509048	352.643494	-283.711304
4133.897880	118.625946	350.247223	-278.684967
4133.901213	119.385742	348.493866	-272.080658
4133.904545	120.087082	346.039154	-267.229706
4133.907449	120.671539	343.642914	-261.443604
4133.910784	120.729980	342.123322	-256.300415
4133.914120	121.723557	338.850403	-250.923431
4133.917454	122.483337	336.571014	-245.721802
4133.920790	122.424896	333.824066	-240.753937
4133.924121	123.535355	331.310944	-236.370544
4133.927448	123.067795	328.622437	-231.636475
4133.930783	123.593811	325.992401	-227.428406
4133.934117	123.944473	323.829926	-221.642334
4133.937455	123.476913	321.024567	-217.083588
4133.940779	124.236710	319.212769	-212.700165
4133.944111	123.944473	316.524261	-208.082977
4133.947450	124.295151	314.128021	-203.816498
4133.950786	124.295151	312.023956	-200.134430
4133.954115	123.476913	309.335480	-195.809448
4133.957441	123.184677	307.465240	-191.776764
4133.960781	122.834015	304.776764	-187.627136
4133.964113	122.658676	302.146698	-184.704865
4133.967476	122.483337	300.334900	-180.847443
4133.970782	121.840439	297.704865	-177.399170
4133.974109	121.957336	295.717712	-173.658691
4133.977445	121.139099	293.087677	-170.561066
4133.980777	120.671539	291.217438	-166.352997
4133.984111	119.561081	289.464050	-164.307434
4133.987444	119.268845	287.243134	-160.099365
4133.990775	118.684402	286.074219	-157.878448
4133.994106	118.216843	283.210419	-154.605499
4133.997445	117.807709	281.340149	-152.150787
4134.000778	117.690826	279.703674	-148.994720
4134.004111	116.814148	277.716553	-148.001160
4134.007443	117.047928	276.372284	-145.312683
4134.010786	116.872589	274.151367	-143.033295
4134.014104	116.112808	272.514893	-140.520172
4134.017441	116.463470	270.060181	-138.182343
4134.020828	115.820572	269.183533	-135.727631
4134.024109	115.528351	267.196381	-133.097595
4134.027444	115.586792	265.735260	-131.811798
4134.030778	115.820572	264.566345	-129.824646
4134.034109	115.119232	262.403839	-127.779076
4134.037440	115.236115	260.592072	-125.850380
4134.040771	115.353012	259.481567	-124.330803
4134.044101	114.768555	257.611328	-122.752785
4134.047441	115.177673	256.734650	-121.057854
4134.050769	115.060776	254.747528	-118.778481
4134.055471	115.294571	251.825256	-116.206902
4134.058389	115.294571	250.714783	-114.804207
4134.061713	115.469894	249.312103	-113.284630
4134.065041	115.236115	248.026306	-111.998833
4134.068356	114.943893	246.798950	-111.005257
4134.071619	114.651657	245.688507	-109.894798
4134.074955	114.593216	244.461151	-108.316765
4134.078296	114.943893	243.584442	-106.797188
4134.081635	115.411453	242.006439	-106.271187
4134.085034	114.710114	241.129730	-104.050255
4134.087892	114.008774	240.019287	-102.764458
4134.091214	114.359436	239.727051	-102.472221
4134.094574	114.184097	238.149017	-101.595558
4134.097890	113.891876	237.447693	-100.075981
4134.101182	112.956757	236.746338	-99.491524
4134.104524	113.365860	235.986542	-98.030388
4134.107861	113.307419	235.635895	-97.329033
4134.111206	112.664520	234.817657	-96.803032
4134.114095	112.781418	233.414978	-96.452354
4134.117434	112.664520	233.005829	-95.926353
4134.120770	112.138519	232.538269	-94.874336
4134.124097	112.196960	231.778473	-94.348335
4134.127429	111.261841	231.486267	-94.114540
4134.130759	111.963181	230.901825	-93.237877
4134.134100	111.846283	230.492706	-92.887199
4134.137434	111.787842	229.849792	-92.828758
4134.140778	111.612503	229.791351	-91.718285
4134.144092	111.729401	228.856232	-91.835182
4134.147429	112.021622	228.973114	-91.016945
4134.150767	111.495621	228.739349	-90.958504
4134.154095	112.138519	228.213318	-90.490944
4134.157453	112.196960	228.037994	-90.257164
4134.160775	112.196960	226.869080	-90.315605
4134.164093	112.313843	227.219757	-90.023369
4134.167433	113.190536	227.453552	-90.549385
4134.170797	113.132080	227.395081	-89.497368
4134.174096	113.248978	226.869080	-89.205132
4134.177420	113.482758	227.161316	-90.607826
4134.180756	114.359436	227.102844	-89.614250
4134.184109	114.826996	226.810638	-90.900063
4134.187421	114.943893	226.459961	-90.841606
4134.190758	115.703674	226.810638	-90.666283
4134.194087	116.054352	227.044434	-90.958504
4134.197419	116.931030	226.518433	-91.659843
4134.200755	117.223267	227.161316	-91.952065
4134.204090	117.983063	227.278198	-92.419624
4134.207420	118.392166	227.511993	-92.419624
4134.210756	118.742844	227.336639	-93.120979
4134.214097	119.502625	227.628876	-94.114540
4134.217420	120.379303	228.213318	-93.822319
4134.220758	119.794861	228.739349	-94.874336
4134.224087	120.671539	228.563995	-94.757439
4134.227471	120.846863	229.148437	-95.224998
4134.230758	121.489777	229.265350	-95.751015
4134.234085	121.548218	230.317352	-96.861473
4134.238698	122.658676	231.077148	-98.556389
4134.242053	123.243134	231.194061	-98.907066
4134.245002	122.483337	232.304504	-99.608421
4134.248295	123.827591	232.888947	-100.309746
4134.251729	124.178253	233.707184	-101.478661
4134.255009	125.288727	234.233185	-102.296898
4134.258345	125.464066	235.402100	-102.530693
4134.261604	125.639389	235.402100	-104.342476
4134.264929	126.574524	236.863251	-105.160728
4134.267840	126.808304	236.980133	-106.212730
4134.271178	127.626541	238.499725	-107.673882
4134.274500	128.386322	239.610168	-108.609001
4134.277834	128.912323	240.019287	-109.427238
4134.281198	129.672119	241.188202	-110.829918
4134.284528	130.315018	241.831085	-112.466393
4134.287868	131.016357	243.000000	-113.459969
4134.290754	132.360596	243.759796	-115.096413
4134.294114	133.178848	245.162476	-117.025124
4134.297415	134.113968	245.688507	-118.778481
4134.300759	135.107544	247.441833	-120.356499
4134.304077	136.451782	248.143188	-121.350090
4134.307416	137.386902	249.896545	-122.869652
4134.310744	139.198715	250.714783	-125.616585
4134.314080	139.432495	251.883698	-127.369942
4134.317407	140.601395	253.227936	-129.064850
4134.320740	142.354767	254.046173	-131.578003
4134.324078	143.465225	255.273529	-133.389832
4134.327415	144.926361	256.442444	-136.545868
4134.330742	145.861481	257.377563	-138.240784
4134.334073	147.556412	258.955566	-140.520172
4134.337433	148.374634	260.007599	-142.039734
4134.340738	149.835770	261.819397	-144.786652
4134.344080	150.770889	262.579193	-146.832275
4134.347413	151.939804	264.566345	-149.462280
4134.350745	153.868500	266.085907	-152.267670
4134.354072	154.628296	267.079468	-155.365265
4134.357414	156.030975	268.715973	-158.755127
4134.360740	157.141434	270.527740	-161.268250
4134.364076	157.901230	272.456451	-164.599670
4134.367408	159.070145	273.800720	-167.755707
4134.370743	159.829926	275.495605	-170.911743
4134.374069	162.343079	277.658081	-174.710693
4134.377402	162.284622	279.119232	-177.808319
4134.380781	164.037994	281.047913	-181.315033
4134.384072	165.148453	282.859741	-184.880188
4134.387401	165.908249	285.489777	-189.029816
4134.390738	167.778503	286.541779	-193.062531
4134.394071	168.479843	288.645844	-196.452393
4134.397402	169.414963	290.749878	-199.959076
4134.400738	171.343658	292.094116	-205.628296
4134.404066	172.278793	294.373474	-208.842773
4134.407399	174.090591	295.542389	-213.109314
4134.410738	174.850388	296.828186	-218.252502
4134.414063	176.428406	299.341339	-223.337219
4134.417398	177.246643	301.094696	-227.895966
4134.420731	179.000000	302.906494	-232.688507
4134.424150	180.285797	304.776764	-237.597900
4134.428667	184.143188	307.699005	-248.760956
4134.432046	185.896561	309.744598	-253.904144
4134.435368	187.533020	311.088837	-260.099365
4134.438782	189.286392	313.017548	-265.534790
4134.441752	190.805969	313.894226	-271.320862
4134.445046	192.559326	315.706024	-277.691406
4134.448328	194.546463	316.582733	-283.360596
4134.451577	196.358261	318.102264	-290.374054
4134.454921	198.111633	319.271210	-296.393921
4134.458246	200.215668	320.790771	-302.589142
4134.461604	202.085922	321.725922	-309.836365
4134.464965	202.787262	323.420837	-315.505585
4134.467874	204.423737	324.239044	-323.687897
4134.471187	206.703110	325.057281	-330.993591
4134.474514	208.164230	325.992401	-338.299255
4134.477825	209.450027	326.810638	-345.838715
4134.481158	210.735825	327.979553	-354.137909
4134.484482	211.670944	328.973114	-361.326721
4134.487822	213.424316	329.499146	-369.450592
4134.491163	214.242538	330.258942	-376.697845
4134.494480	215.411453	330.083588	-386.867310
4134.497394	215.879028	330.668030	-395.049683
4134.500721	217.106384	331.135590	-403.816498
4134.504053	218.041504	331.077148	-412.992401
4134.507397	218.333740	331.720062	-422.109894
4134.510730	218.684402	330.960266	-430.058441
4134.514059	219.268860	331.661621	-441.221527
4134.517393	219.210403	330.784943	-450.397430
4134.520729	219.794861	331.135590	-459.982452
4134.524125	220.028625	330.375793	-469.801300
4134.527387	220.087097	329.148437	-478.860321
4134.530725	219.619522	328.330231	-489.906464
4134.534052	219.327301	326.869110	-499.608429
4134.537386	219.093506	325.349518	-509.368805
4134.540760	218.684402	323.537689	-519.713562
4134.544055	217.807709	321.141449	-530.058411
4134.547384	217.866180	319.095856	-540.812317
4134.550720	217.632385	316.582733	-550.689636
4134.554071	216.346588	313.777344	-563.080078
4134.557383	215.586792	310.562836	-572.723511
4134.560720	214.943893	307.231445	-583.594360
4134.564051	214.710114	303.432495	-595.458801
4134.567386	212.956757	299.399780	-605.569824
4134.570721	212.547638	295.542389	-616.732849
4134.574054	211.144958	290.691406	-627.077698
4134.577383	210.034485	285.372894	-638.474548
4134.580721	209.216248	280.521912	-649.988281
4134.584046	207.638229	274.794281	-660.391541
4134.587387	205.826416	269.417297	-671.262390
4134.590717	203.663940	262.988312	-681.841003
4134.594053	202.202820	256.793091	-693.179382
4134.597407	199.981888	249.428986	-703.465820
4134.600719	197.468735	242.707794	-713.401428
4134.604052	194.897141	234.700745	-724.096985
4134.607378	191.916428	227.278198	-733.506714
4134.610714	188.701935	220.089417	-745.312622
4134.614051	185.721222	212.257751	-755.306885
4134.617377	181.805374	203.023376	-765.417908
4134.620715	178.357101	194.607239	-775.061340
4134.625336	169.298065	176.664520	-794.172974
4134.628257	165.265350	167.663940	-804.576233
4134.631667	160.706604	158.020447	-813.284607
4134.634976	154.569839	148.552307	-821.057861
4134.638306	149.777328	138.149048	-828.714233
4134.641584	143.582123	128.096436	-836.487427
4134.644891	138.146698	118.102280	-845.254150
4134.647807	131.834610	107.815895	-852.092285
4134.651138	125.230270	97.237289	-859.748718
4134.654469	119.502625	86.132675	-865.885376
4134.657798	112.956757	74.852722	-871.788330
4134.661160	105.826416	63.397430	-876.697754
4134.664493	99.338989	52.059029	-882.776123
4134.667828	92.559326	41.655758	-886.633545
4134.670721	85.545883	29.616014	-891.133850
4134.674042	78.883102	17.751608	-895.517212
4134.677373	71.343658	5.711864	-898.556396
4134.680713	64.447105	-6.269432	-901.595520
4134.684075	56.966103	-18.133839	-903.699524
4134.687375	49.601986	-29.764465	-905.277588
4134.690714	42.997662	-41.687317	-906.271118
4134.694040	36.685562	-54.136177	-907.440063
4134.697375	29.730566	-65.708359	-906.680237
4134.700701	23.243132	-77.105202	-906.388062
4134.704044	16.989479	-88.969604	-905.686707
4134.707374	9.099357	-101.593811	-903.757996
4134.710708	2.904149	-113.341331	-902.589050
4134.714039	-3.466394	-125.205727	-899.374634
4134.717368	-9.661602	-136.193451	-896.510742
4134.720708	-16.324375	-147.356506	-892.068909
4134.724035	-22.578026	-158.636475	-888.094666
4134.727385	-28.656342	-169.799530	-884.295715
4134.730697	-34.208649	-180.378143	-879.444763
4134.734045	-40.754532	-190.606079	-874.243103
4134.737369	-46.657509	-200.658661	-867.697205
4134.740746	-52.852718	-210.185272	-860.800659
4134.744083	-57.879017	-219.185852	-854.663879
4134.747373	-63.957333	-228.420227	-846.832214
4134.750696	-69.217422	-237.479248	-840.403198
4134.754033	-75.237289	-246.070709	-831.578003
4134.757397	-80.146698	-253.727051	-824.038574
4134.760699	-86.283463	-262.260071	-815.037964
4134.764036	-91.660431	-269.215057	-806.037354
4134.767365	-96.920517	-276.520752	-797.036804
4134.770709	-102.531265	-283.592651	-788.036194
4134.774032	-108.200470	-290.606079	-779.035583
4134.777371	-112.992981	-296.158356	-767.872559
4134.780701	-117.902390	-302.762695	-757.644592
4134.784027	-122.987137	-308.081238	-747.767395
4134.787360	-128.013443	-313.691986	-737.773193
4134.790701	-132.279953	-317.607819	-727.779053
4134.794031	-136.955582	-322.400330	-717.258850
4134.797359	-140.929855	-326.959076	-706.212769
4134.800703	-145.196381	-330.758026	-695.634094
4134.804025	-148.469315	-335.316772	-683.886597
4134.807362	-151.625366	-338.765045	-673.132629
4134.810697	-154.839859	-341.921112	-661.326660
4134.815376	-161.035065	-347.298065	-639.877197
4134.818261	-164.424896	-349.343658	-628.246643
4134.821541	-166.470490	-351.564575	-617.668030
4134.824874	-168.399170	-352.616577	-607.089355
4134.828227	-170.152542	-355.305084	-597.153687
4134.831656	-172.607239	-356.357086	-585.055481
4134.834968	-173.776138	-357.233765	-573.892456
4134.838287	-175.178848	-359.396240	-563.722961
4134.841558	-176.581528	-359.922241	-552.092285
4134.844474	-177.224426	-361.032715	-541.279907
4134.847785	-177.808884	-361.324951	-531.344238
4134.851116	-178.218002	-362.201630	-521.408508
4134.854452	-178.685562	-362.201630	-511.005280
4134.857780	-179.503799	-362.552307	-500.017548
4134.861114	-179.737579	-362.552307	-490.315582
4134.864468	-180.555817	-362.610748	-479.503204
4134.867354	-180.322037	-361.967834	-469.275238
4134.870689	-180.497360	-361.558746	-459.923981
4134.874046	-180.497360	-361.032715	-450.689667
4134.877358	-180.848038	-359.980713	-441.338409
4134.880715	-181.374039	-358.519562	-431.636444
4134.884024	-180.672699	-358.052002	-422.577423
4134.887361	-180.906479	-356.123322	-412.875519
4134.890684	-181.549377	-354.720612	-404.517822
4134.894017	-181.198715	-353.551697	-396.452362
4134.897352	-181.081818	-351.915253	-387.510223
4134.900685	-180.731155	-350.512573	-379.269440
4134.904016	-180.964935	-349.109863	-371.437775
4134.907353	-180.438919	-347.181152	-362.846313
4134.910684	-180.614258	-345.369385	-355.073059
4134.914016	-179.854477	-343.089996	-347.592041
4134.917362	-180.322037	-341.921112	-340.637054
4134.920690	-180.088257	-339.466400	-333.857422
4134.924022	-179.971359	-337.596130	-326.317963
4134.927347	-178.977783	-334.907623	-319.538300
4134.930680	-178.919342	-332.862061	-312.641754
4134.934015	-179.211563	-330.816467	-306.388062
4134.937350	-178.568665	-328.946228	-299.725311
4134.940681	-178.276443	-326.549957	-293.179443
4134.944011	-177.925766	-324.504395	-286.984222
4134.947349	-177.458206	-321.874329	-281.431915
4134.950706	-176.523087	-320.296326	-276.054932
4134.954045	-175.821747	-317.724701	-271.437775
4134.957347	-175.354172	-315.094666	-265.067230
4134.960702	-174.886612	-313.575073	-259.807129
4134.964013	-173.776138	-310.769714	-254.313293
4134.967344	-173.016373	-309.133240	-249.286957
4134.970676	-172.081238	-306.386322	-244.728241
4134.974016	-171.555222	-304.808289	-239.643494
4134.977352	-170.210983	-303.113373	-235.376984
4134.980681	-169.509644	-300.600220	-230.058441
4134.984013	-169.334305	-299.606628	-226.902405
4134.987346	-167.697830	-297.268829	-221.700775
4134.990677	-166.762711	-295.164795	-217.200470
4134.995384	-164.541794	-291.424316	-210.187042
4134.998268	-163.255981	-289.554047	-206.914093
4135.001603	-163.080658	-287.508484	-201.420227
4135.004906	-161.327286	-285.638214	-199.023956
4135.008195	-160.625946	-283.884857	-194.231445
4135.011515	-159.690811	-282.131500	-191.192291
4135.014873	-158.814133	-279.793671	-187.159576
4135.018226	-158.463470	-278.332550	-183.711304
4135.021567	-157.586792	-276.228516	-181.548798
4135.024452	-156.300995	-274.708923	-178.042084
4135.027789	-156.125656	-273.014008	-174.886047
4135.031100	-155.950317	-270.909973	-172.431335
4135.034463	-155.190521	-268.572174	-169.509064
4135.037764	-154.606079	-267.227936	-166.645233
4135.041141	-154.138519	-265.357666	-163.956757
4135.044430	-153.437164	-264.422546	-161.209808
4135.047768	-153.378723	-262.610748	-159.047333
4135.050669	-152.209808	-260.740509	-156.943329
4135.054007	-152.326706	-259.045593	-154.137939
4135.057335	-151.625366	-257.993561	-151.800110
4135.060667	-151.391586	-255.889526	-148.994720
4135.064000	-151.391586	-253.902405	-147.884277
4135.067336	-150.924026	-253.317932	-145.312683
4135.070668	-149.755112	-251.739929	-143.500885
4135.074005	-149.871994	-250.161896	-141.338379
4135.077334	-149.404434	-248.700745	-140.403259
4135.080680	-149.462891	-247.999420	-139.409698
4135.084038	-149.053772	-246.246033	-138.065460
4135.087330	-148.527756	-245.018677	-135.902985
4135.090679	-148.469315	-244.551117	-134.558746
4135.094000	-147.943298	-243.382233	-133.565155
4135.097339	-147.884872	-242.563995	-132.104034
4135.100661	-147.592636	-240.635284	-130.935120
4135.103999	-146.832840	-239.875488	-129.590881
4135.107331	-146.599060	-239.407928	-127.720634
4135.110664	-146.423721	-238.823486	-127.311516
4135.113998	-146.482162	-237.713043	-125.558159
4135.117331	-145.547043	-236.777893	-124.856804
4135.120669	-145.313263	-235.784332	-123.980141
4135.124002	-144.553482	-235.842773	-122.986549
4135.127325	-144.553482	-235.433655	-122.402092
4135.130662	-143.852127	-233.797180	-121.233192
4135.134003	-144.144348	-233.621857	-120.473396
4135.137328	-143.443008	-232.569824	-120.122734
4135.140659	-143.559906	-232.160736	-118.953819
4135.143997	-143.033890	-231.400940	-118.836937
4135.147330	-142.683228	-231.926941	-118.135582
4135.150660	-142.800110	-230.290466	-117.960258
4135.154020	-142.157211	-230.115143	-117.200462
4135.157344	-142.215668	-229.706024	-116.557564
4135.160664	-142.507889	-229.472260	-115.622444
4135.163991	-142.040314	-229.180023	-114.278191
4135.167333	-142.858566	-228.478668	-114.921089
4135.170681	-142.040314	-227.952667	-113.810631
4135.173988	-142.507889	-227.192871	-113.576866
4135.177328	-142.566330	-227.718872	-114.102852
4135.180664	-143.092346	-226.783752	-112.817070
4135.183993	-143.033890	-226.725311	-113.401527
4135.188663	-143.793686	-226.549988	-112.875496
4135.192008	-144.378128	-225.381042	-112.641731
4135.194932	-144.670364	-226.257751	-113.167732
4135.198251	-144.553482	-225.790192	-113.167732
4135.201530	-145.137924	-225.088837	-112.817070
4135.204831	-145.897720	-225.965515	-113.284630
4135.208178	-146.423721	-225.205719	-113.343071
4135.211523	-146.949722	-225.497955	-113.576866
4135.214914	-147.592636	-225.965515	-114.687309
4135.218247	-147.943298	-225.264160	-114.862648
4135.221119	-147.475739	-225.614838	-115.154884
4135.224439	-148.761536	-225.556396	-115.330208
4135.227788	-149.696671	-225.731720	-116.323769
4135.231076	-149.871994	-226.842194	-116.382240
4135.234411	-150.514893	-226.199280	-117.317360
4135.237742	-151.391586	-227.309753	-118.369377
4135.241075	-151.450027	-227.894196	-118.953819
4135.243979	-152.560486	-227.368195	-120.414970
4135.247319	-152.794266	-228.011108	-121.583855
4135.250655	-153.612503	-228.127991	-122.635887
