time (s)	magX	magY	magZ
3655.547619	276.716553	193.521912	127.024544
3655.550955	279.463440	194.866165	130.531265
3655.554284	282.619507	197.028641	134.154877
3655.557637	284.957336	198.665115	137.953827
3655.560954	287.996460	201.002930	140.876099
3655.564291	290.684998	202.873169	144.908813
3655.567643	294.074829	204.743423	149.409119
3655.570957	297.756836	206.496796	153.792511
3655.574287	301.146729	208.542374	158.877258
3655.577625	304.302734	211.347748	164.254242
3655.580948	307.692566	213.977798	169.455872
3655.584287	312.192871	216.607834	175.651077
3655.587621	315.991821	219.120987	182.372284
3655.590958	319.966125	221.692581	189.035065
3655.594283	324.933960	224.381073	196.516068
3655.597621	328.382202	226.601990	202.594391
3655.600986	332.648743	229.173584	210.893616
3655.604284	337.090576	231.803619	219.368195
3655.607623	341.181763	234.901230	227.024536
3655.610951	345.857361	237.414368	235.966675
3655.614280	349.539429	240.336639	243.564575
3655.617619	354.039734	243.317352	252.623627
3655.620945	358.014038	246.239624	261.682648
3655.624279	361.579163	248.752777	270.274109
3655.627615	366.430176	251.908813	279.859131
3655.630945	370.112183	254.480423	288.976624
3655.634274	374.904724	257.227356	298.094086
3655.638498	383.087097	262.195190	315.569275
3655.641792	387.587402	264.825256	325.095856
3655.645176	390.977234	267.630615	334.797760
3655.648484	394.308594	269.500854	344.090576
3655.651861	397.990662	271.604919	352.682037
3655.655182	401.906494	273.475159	362.442413
3655.658070	405.004089	275.754517	371.326111
3655.661392	408.803040	277.390991	381.846283
3655.664744	412.601990	280.137939	391.255981
3655.668031	416.108704	281.482178	400.957916
3655.671368	420.024536	283.118652	411.711853
3655.674275	423.180603	285.514893	421.296875
3655.677609	426.628906	286.683807	432.693756
3655.680943	429.843384	288.378723	443.915253
3655.684274	432.882507	289.547638	455.896545
3655.687641	436.389282	290.365875	467.936279
3655.690945	439.311523	291.651672	480.911133
3655.694271	441.415527	292.294556	494.061340
3655.697604	444.454712	293.288116	507.386902
3655.700936	447.610779	293.580353	521.296936
3655.704271	450.007019	293.405029	536.901794
3655.707607	452.461731	294.106384	552.682068
3655.710938	454.799500	294.340149	570.215637
3655.714268	456.669739	294.573944	586.463501
3655.717602	458.247803	293.989471	603.412598
3655.720960	459.241394	293.112793	622.991821
3655.724278	460.001160	291.943909	641.226746
3655.727604	459.825867	290.658081	660.396851
3655.730970	459.533569	288.612488	680.677368
3655.734269	458.247803	286.976044	701.659302
3655.737605	456.962036	284.521332	721.472229
3655.740935	454.624207	282.008179	742.454102
3655.744270	452.227905	279.085907	763.494446
3655.747601	449.071899	275.812988	784.067200
3655.750935	445.389832	272.072479	805.165955
3655.754264	440.772644	268.565735	825.388062
3655.757599	435.921692	264.299255	846.603760
3655.760934	430.544739	259.506714	867.234924
3655.764269	424.817078	253.720627	887.106323
3655.767601	417.803650	249.044998	906.860840
3655.772297	404.068970	236.829910	944.499695
3655.775246	395.594360	231.277618	962.208679
3655.778525	388.054932	224.614853	979.859070
3655.781805	378.995911	218.244308	997.217407
3655.785113	370.638245	210.938629	1014.692505
3655.788442	361.637634	203.691406	1031.349487
3655.791356	353.396851	196.677963	1047.714233
3655.794688	344.279358	188.670944	1062.617798
3655.798013	334.402100	181.073059	1077.813599
3655.801375	324.758606	173.007599	1092.424927
3655.804718	314.764465	164.533020	1107.094727
3655.808044	303.659851	155.357101	1120.595581
3655.810931	292.672119	145.713623	1133.628906
3655.814265	281.859741	135.777908	1146.253052
3655.817595	269.761536	125.959091	1158.584961
3655.820932	258.540039	115.672707	1169.514282
3655.824286	245.974274	104.275864	1180.969604
3655.827593	232.940964	93.229691	1191.606689
3655.830931	218.621857	80.430161	1202.769653
3655.834262	204.419632	68.741089	1212.413208
3655.837597	189.866745	56.292225	1222.933350
3655.840924	174.437164	42.908241	1231.115723
3655.844261	157.897141	28.822910	1239.298096
3655.847591	140.889542	15.088251	1246.136230
3655.850922	124.115723	1.119812	1252.389893
3655.854259	105.237877	-12.965519	1257.357666
3655.857590	87.295151	-27.576855	1260.279907
3655.860922	67.891296	-42.246643	1263.903564
3655.864253	47.902981	-56.857979	1264.897095
3655.867605	29.492695	-71.586212	1267.351807
3655.870927	8.452366	-86.080658	1265.423096
3655.874257	-11.652836	-101.101105	1265.715332
3655.877589	-31.582699	-114.952652	1261.682617
3655.880930	-51.980133	-129.271774	1258.701904
3655.884252	-72.260666	-142.538864	1253.383423
3655.887589	-91.489182	-156.215088	1247.480469
3655.890922	-110.834595	-168.897736	1240.116333
3655.894252	-129.654007	-181.638794	1231.291016
3655.897590	-148.298065	-193.620102	1220.712402
3655.900919	-165.948563	-204.198700	1211.828735
3655.905548	-199.145523	-224.829926	1189.035034
3655.908467	-213.990646	-234.648743	1177.462891
3655.911839	-228.426651	-244.058441	1165.423096
3655.915187	-242.219742	-252.591492	1152.214478
3655.918507	-255.428421	-261.066040	1139.823975
3655.921458	-267.818848	-268.839264	1127.784424
3655.925107	-279.800110	-277.255402	1114.166626
3655.928009	-291.372314	-283.859741	1101.367065
3655.931338	-300.840454	-290.639374	1086.814209
3655.934683	-310.951477	-297.068390	1073.780884
3655.938005	-319.659851	-303.380463	1059.286377
3655.941339	-329.069519	-309.341919	1045.434814
3655.944245	-336.609009	-314.777344	1030.765137
3655.947594	-344.674438	-320.212738	1015.277039
3655.950915	-351.804810	-325.531281	1000.840942
3655.954249	-358.292236	-331.025146	986.405029
3655.957579	-365.130310	-335.817657	971.033875
3655.960918	-371.793091	-340.142609	955.136780
3655.964256	-377.520752	-344.175354	939.414917
3655.967586	-382.956177	-348.792511	923.342468
3655.970909	-387.924011	-352.533020	907.562256
3655.974248	-392.424316	-355.864410	891.548157
3655.977576	-398.151978	-359.663361	874.832825
3655.980909	-402.301575	-361.416718	857.299194
3655.984244	-406.158997	-364.222076	839.707153
3655.987582	-409.841003	-366.969025	822.173584
3655.990950	-412.997070	-369.073059	805.399780
3655.994244	-416.503784	-370.008179	787.807739
3655.997577	-420.127380	-372.112244	770.332520
3656.000910	-423.166565	-372.521301	752.565186
3656.004243	-425.504395	-373.924011	735.908264
3656.007569	-427.783752	-373.222687	716.971924
3656.010909	-429.186462	-373.164246	700.022766
3656.014245	-430.705994	-373.631775	683.424316
3656.017573	-431.173584	-372.696655	666.475098
3656.020909	-432.810059	-371.761536	649.292236
3656.024238	-433.569885	-370.767975	633.278198
3656.027574	-433.511414	-369.365265	617.790161
3656.030910	-434.212708	-367.962585	601.717712
3656.034273	-433.686707	-366.092346	587.223267
3656.038857	-432.167175	-363.111633	559.695496
3656.042217	-432.050293	-360.715363	545.025696
3656.045121	-430.764465	-359.020447	531.933960
3656.048443	-430.063110	-355.981293	519.894226
3656.051775	-428.368164	-354.111023	508.438904
3656.055169	-426.965515	-352.007019	497.509644
3656.058511	-425.153748	-350.019867	486.463470
3656.061330	-423.926331	-347.331390	474.774384
3656.064662	-421.705444	-344.818237	465.715363
3656.067994	-419.367615	-342.538879	455.838104
3656.071345	-416.971375	-341.311523	447.129761
3656.074662	-414.984253	-339.207489	438.304504
3656.077995	-413.055542	-337.512573	429.946808
3656.080899	-411.535950	-335.642334	422.115143
3656.084239	-408.905884	-333.479858	414.458771
3656.087572	-406.217407	-331.901825	406.743988
3656.090900	-403.879578	-329.797791	399.204529
3656.094229	-401.366455	-328.336639	392.366425
3656.097567	-399.262451	-326.291077	385.002319
3656.100899	-396.106384	-324.654602	378.105774
3656.104229	-393.125671	-323.135010	371.267670
3656.107580	-390.320312	-321.323212	363.435974
3656.110898	-387.690247	-319.745178	356.130310
3656.114230	-385.001770	-317.874908	350.753357
3656.117567	-382.605530	-316.180023	343.681458
3656.120925	-379.800110	-314.426636	337.369385
3656.124233	-377.345398	-312.556396	329.888367
3656.127569	-374.832275	-310.452362	323.284027
3656.130894	-372.494446	-308.173004	317.030396
3656.134227	-369.864441	-306.244324	311.068970
3656.137557	-367.409729	-304.607819	304.406189
3656.140893	-364.896545	-302.328461	298.561646
3656.144232	-362.909424	-300.224426	291.723541
3656.147567	-359.870239	-297.711273	285.177673
3656.150898	-357.707764	-294.555206	279.742249
3656.154230	-354.376404	-292.392761	272.845703
3656.157565	-352.564575	-290.756287	267.468719
3656.160897	-349.642334	-288.535370	262.500885
3656.164252	-347.655151	-285.671539	257.182343
3656.167552	-345.258911	-283.509064	252.272949
3656.170898	-343.154907	-281.054352	246.837524
3656.175132	-339.180603	-276.670929	237.486267
3656.178405	-337.485657	-274.333130	233.570435
3656.181738	-335.147827	-271.819977	230.180603
3656.185074	-332.985413	-270.417297	225.972534
3656.188453	-330.238464	-268.722382	222.524261
3656.191759	-328.718872	-266.559906	219.485107
3656.194676	-327.316162	-265.157196	216.387482
3656.198005	-325.621277	-263.170074	213.582123
3656.201335	-323.634094	-262.059631	211.770294
3656.204654	-321.939209	-260.949158	209.666260
3656.207983	-320.536560	-259.312683	207.679138
3656.211315	-319.133850	-259.020447	205.165985
3656.214255	-317.964905	-257.910004	203.997070
3656.217555	-316.036255	-257.150208	202.535950
3656.220888	-315.744019	-256.448853	201.016357
3656.224217	-313.873779	-255.513733	200.431915
3656.227560	-312.763306	-255.279968	199.964355
3656.230885	-311.594360	-255.046173	197.568085
3656.234222	-310.133240	-254.403259	197.100525
3656.237558	-309.198120	-254.637054	195.873169
3656.240887	-307.269409	-253.877258	195.639389
3656.244218	-306.158997	-253.877258	194.178253
3656.247556	-305.866760	-252.883698	193.476913
3656.250905	-304.230286	-253.000580	192.015778
3656.254216	-302.535339	-252.708344	191.489777
3656.257556	-302.184692	-252.649902	189.853302
3656.260896	-300.898865	-252.182343	188.801285
3656.264222	-300.431335	-251.831696	186.931030
3656.267549	-298.794861	-250.954987	185.469894
3656.270885	-297.158386	-250.838104	184.885452
3656.274212	-296.807739	-250.019867	182.839844
3656.277546	-295.697266	-249.727631	182.722961
3656.280883	-295.054382	-249.026306	180.852722
3656.284219	-294.119263	-249.084747	179.157806
3656.287544	-293.008789	-248.324951	177.696655
3656.290883	-292.248962	-247.565155	175.884857
3656.294209	-291.196960	-247.039154	175.241974
3656.297543	-290.378723	-246.746918	173.663940
3656.300889	-289.969604	-245.811798	173.137939
3656.304212	-289.385132	-245.052002	171.969025
3656.308895	-287.982483	-244.526001	170.683228
3656.311811	-287.807129	-244.409119	170.157211
3656.315145	-287.748718	-243.766235	169.631210
3656.318459	-286.813538	-243.883118	169.280533
3656.321728	-286.813538	-243.240234	168.696075
3656.325067	-286.813538	-243.181763	169.046753
3656.328391	-286.988892	-243.123322	169.280533
3656.331316	-287.398010	-244.233795	169.572754
3656.334640	-287.398010	-244.409119	169.806549
3656.338029	-287.748718	-244.876678	171.501465
3656.341330	-287.514893	-244.993591	171.676788
3656.344664	-287.631775	-246.162476	172.611923
3656.347557	-288.391602	-246.162476	174.014618
3656.350875	-288.274719	-247.097595	176.001740
3656.354206	-288.625366	-248.617187	177.346008
3656.357542	-289.560486	-249.669189	178.690247
3656.360869	-289.502075	-250.370544	180.677368
3656.364212	-289.794250	-252.182343	182.430740
3656.367535	-290.729431	-253.175903	184.768555
3656.370877	-291.021606	-254.695496	186.755707
3656.374207	-291.722961	-256.215088	187.807709
3656.377545	-292.015198	-257.267090	189.677963
3656.380876	-292.307434	-259.020447	192.366455
3656.384202	-292.716553	-260.130920	193.535370
3656.387565	-293.067200	-261.592072	195.814728
3656.390869	-293.651672	-262.819397	198.152527
3656.394207	-293.359436	-264.222076	200.081238
3656.397534	-294.528320	-265.741669	201.659271
3656.400874	-294.645264	-267.495026	203.412628
3656.404203	-295.054382	-269.131500	205.107544
3656.407531	-295.521912	-270.417297	206.568665
3656.410870	-296.398560	-271.644653	207.796021
3656.414206	-297.567505	-272.872009	209.666260
3656.417536	-298.093506	-274.976044	211.302734
3656.420902	-298.911743	-275.326721	213.114563
3656.424202	-299.320862	-276.729401	214.751038
3656.427536	-299.729980	-278.248993	217.381042
3656.430899	-300.255981	-279.651672	218.549988
3656.434203	-301.541809	-280.820557	220.303314
3656.437528	-302.067810	-282.807709	222.407349
3656.440864	-303.002930	-283.801270	224.920502
3656.445509	-304.697815	-286.548218	229.537689
3656.448460	-306.158997	-287.775574	232.284637
3656.451739	-307.561646	-289.879608	235.206909
3656.455133	-308.847473	-291.340729	238.596710
3656.458462	-309.782593	-293.094086	242.512573
3656.461801	-310.425476	-295.139679	245.668610
3656.464620	-311.243713	-296.776154	249.292236
3656.467962	-313.230896	-299.581543	253.208069
3656.471288	-314.575073	-301.627136	258.175903
3656.474637	-316.328430	-304.490936	262.091736
3656.477958	-317.672729	-306.478088	267.293396
3656.480864	-318.958496	-309.751007	272.495026
3656.484195	-320.244324	-312.147278	277.053772
3656.487524	-321.588562	-314.017548	283.541199
3656.490864	-323.166565	-317.933380	288.216827
3656.494192	-324.277039	-320.154297	295.230286
3656.497529	-326.322632	-322.959656	300.607239
3656.500857	-327.608398	-326.291077	307.971375
3656.504192	-328.192871	-329.680878	313.815887
3656.507547	-329.653992	-333.538269	320.537109
3656.510889	-330.413818	-336.928101	326.966095
3656.514189	-332.050293	-339.967255	334.563995
3656.517537	-332.985413	-342.947998	340.583862
3656.520862	-333.277588	-346.571594	347.305084
3656.524193	-334.037415	-350.428986	355.019867
3656.527526	-334.797180	-353.468140	360.922852
3656.530860	-335.673889	-357.033325	368.871399
3656.534187	-335.732300	-359.955597	375.943298
3656.537526	-337.135010	-363.228516	382.898315
3656.540855	-337.485657	-366.267700	390.788422
3656.544188	-337.602539	-369.891266	397.977173
3656.547522	-338.654602	-372.813568	404.639954
3656.550862	-339.706604	-375.677399	412.120972
3656.554204	-339.765076	-379.125641	419.251312
3656.557520	-340.758606	-382.398621	425.914062
3656.560854	-340.524841	-384.561066	434.037964
3656.564189	-341.109314	-387.892456	441.460541
3656.567522	-342.336670	-390.756287	449.584442
3656.570846	-342.745728	-394.146118	457.766785
3656.574183	-342.278198	-396.308563	465.773804
3656.578833	-344.148437	-402.620697	482.898315
3656.581706	-343.973083	-404.607819	491.898895
3656.585031	-343.797791	-408.114532	501.951477
3656.588383	-345.142029	-411.212158	512.062561
3656.591723	-344.265320	-413.783752	521.998230
3656.595135	-344.732910	-416.355347	532.401489
3656.598000	-344.206909	-417.991852	543.447693
3656.601302	-343.271790	-421.089417	556.071899
3656.604631	-342.453552	-423.836334	567.527161
3656.607938	-341.869080	-426.407959	579.333130
3656.611269	-340.758606	-428.804230	590.846863
3656.614604	-339.063721	-431.843384	605.224426
3656.617512	-336.959656	-433.888977	618.491516
3656.620846	-334.797180	-436.752747	632.518433
3656.624180	-332.342468	-439.382812	646.779053
3656.627512	-329.186462	-441.077728	659.111023
3656.630846	-326.147278	-443.298645	673.722412
3656.634182	-322.465210	-446.162476	688.509033
3656.637517	-318.315613	-448.383392	703.178833
3656.640866	-314.808899	-450.662781	718.082397
3656.644175	-309.957886	-452.825256	732.226135
3656.647513	-305.399170	-454.286407	746.895935
3656.650845	-299.963745	-454.870850	761.390442
3656.654177	-294.060791	-456.390442	776.118652
3656.657515	-288.391602	-456.974854	790.028625
3656.660847	-282.488586	-458.611359	803.821716
3656.664181	-275.708923	-458.319092	818.725281
3656.667508	-268.870850	-459.137360	831.174133
3656.670843	-262.734070	-459.897156	845.142578
3656.674175	-255.311508	-459.546478	859.169434
3656.677509	-248.999435	-459.838684	872.728821
3656.680840	-241.109299	-459.020447	885.820618
3656.684199	-233.862076	-458.143768	899.905884
3656.687510	-225.329041	-458.026886	912.471619
3656.690841	-218.023376	-456.624176	925.680298
3656.694175	-210.600830	-455.338379	937.953796
3656.697508	-202.360031	-453.643463	950.052002
3656.700841	-194.469910	-451.714813	962.500854
3656.704177	-185.586212	-449.669189	976.293945
3656.707504	-176.819397	-445.987152	987.457031
3656.712191	-158.175339	-439.324402	1011.185852
3656.715151	-148.765640	-436.051422	1023.517822
3656.718358	-138.829926	-431.843384	1036.785034
3656.721688	-128.485092	-427.635284	1048.181763
3656.725014	-118.081818	-423.193451	1059.520142
3656.728392	-106.684982	-418.400909	1069.397461
3656.731713	-95.697258	-413.491547	1080.560547
3656.734622	-83.482178	-407.997681	1091.255981
3656.737954	-71.267097	-401.510254	1102.243774
3656.741286	-58.350677	-395.022797	1111.419556
3656.744652	-45.784920	-389.061371	1121.121582
3656.747926	-32.225601	-381.112823	1129.187012
3656.750831	-18.315605	-374.391571	1137.836914
3656.754173	-3.938047	-366.267700	1145.201050
3656.757501	10.907072	-358.552887	1152.039185
3656.760829	25.752192	-349.669189	1158.117554
3656.764173	41.766220	-342.188202	1164.780273
3656.767497	56.962009	-333.304504	1168.637573
3656.770852	73.034485	-324.420807	1172.378052
3656.774166	89.340736	-314.894196	1178.105713
3656.777504	105.413208	-304.841614	1179.859131
3656.780828	121.661018	-295.724152	1181.378662
3656.784161	137.908829	-286.197540	1182.255371
3656.787501	154.507309	-276.612518	1181.846313
3656.790828	170.813568	-266.676788	1182.021606
3656.794165	187.178253	-256.799530	1180.268188
3656.797495	202.841614	-246.513153	1178.281128
3656.800847	218.095856	-236.752777	1175.943359
3656.804160	234.460541	-226.583282	1173.137939
3656.807519	249.013443	-216.647583	1169.397339
3656.810843	263.683228	-207.237869	1165.072510
3656.814165	276.599670	-197.360626	1160.572144
3656.817499	290.509644	-187.658676	1154.961426
3656.820831	304.302734	-178.599655	1149.467529
3656.824156	316.693176	-168.722382	1141.811157
3656.827494	329.200439	-159.078903	1135.849731
3656.830869	341.357117	-149.669205	1128.894775
3656.834163	353.396851	-139.967270	1121.706055
3656.837493	364.735229	-130.557571	1114.224976
3656.840829	375.313843	-121.381653	1106.218018
3656.844159	386.476929	-111.679718	1098.210937
3656.848835	404.887207	-92.626534	1079.566895
3656.851704	414.998230	-83.216835	1070.157227
3656.855101	423.940369	-74.333138	1061.741089
3656.858437	432.122742	-64.806549	1051.571655
3656.861706	441.181763	-55.221504	1040.467041
3656.865002	450.065491	-46.805382	1030.063721
3656.867922	457.546448	-37.161896	1016.913513
3656.871246	465.670349	-27.869083	1005.692017
3656.874598	472.917603	-18.985390	993.301636
3656.877919	479.755676	-9.751026	981.320312
3656.881245	486.886047	-0.165985	967.293396
3656.884154	493.841003	7.724136	954.201599
3656.887497	499.919373	17.016949	940.350098
3656.890822	507.517273	24.790180	925.563354
3656.894155	513.537109	34.199883	910.952026
3656.897489	518.855652	42.382233	895.756287
3656.900829	523.940369	50.097015	880.560547
3656.904165	528.265320	57.636467	866.007568
3656.907487	532.531860	65.000580	850.344238
3656.910818	536.856812	71.838684	834.213318
3656.914156	540.421997	78.618347	818.140869
3656.917521	542.993591	85.105789	803.471069
3656.920815	546.383423	91.242554	788.450623
3656.924149	549.305664	96.619522	771.968994
3656.927481	550.649963	102.522499	757.240784
3656.930843	552.695557	107.607246	742.454102
3656.934147	553.805969	112.691986	726.966064
3656.937477	554.799500	117.250732	713.172974
3656.940813	555.910034	121.517235	698.620117
3656.944145	555.910034	125.666862	684.651611
3656.947480	555.676270	129.465805	670.566345
3656.950820	555.910034	133.615417	656.890137
3656.954151	555.559326	136.713028	643.506104
3656.957476	554.565796	139.752197	631.524841
3656.960837	553.338379	143.726471	619.660400
3656.964148	552.987732	146.298065	607.270020
3656.967478	551.585083	149.337219	596.165405
3656.970814	549.890137	152.317947	584.710083
3656.974157	548.253662	155.123322	573.430176
3656.977484	546.441833	157.402679	562.734619
