time (s)	magX	magY	magZ
4400.524583	125.288727	167.079498	-48.468727
4400.527888	125.990067	168.949738	-49.286964
4400.531220	126.457626	171.112213	-52.150780
4400.534534	127.860321	172.924011	-53.845695
4400.537914	128.444763	175.320282	-56.300407
4400.541212	129.438339	177.541199	-57.995323
4400.544540	130.724136	180.288116	-60.099358
4400.547873	131.542374	182.567505	-62.495613
4400.551210	132.594391	185.314423	-65.300987
4400.554122	134.756866	187.535370	-67.580360
4400.557447	135.867340	190.866760	-70.151955
4400.560783	137.503799	192.620117	-72.840446
4400.564115	138.146698	195.367035	-75.295143
4400.567454	138.964935	197.997070	-78.977196
4400.570782	140.133835	201.153137	-82.367027
4400.574116	141.419632	203.724731	-84.763298
4400.577446	142.237869	207.465240	-87.743996
4400.580818	143.757446	209.978363	-91.601402
4400.584115	144.692581	213.075989	-94.757439
4400.587450	145.803040	215.881348	-98.731728
4400.590778	146.855057	219.037415	-101.712440
4400.594131	148.140854	221.667450	-104.926933
4400.597448	148.842194	224.531250	-107.790749
4400.600784	150.128006	228.037994	-112.232613
4400.604110	151.063126	230.784912	-116.148445
4400.607459	151.530685	233.765625	-119.947411
4400.610777	152.758041	236.863251	-124.272346
4400.614112	154.102280	239.843933	-126.960838
4400.617439	154.862076	242.824646	-131.987122
4400.620776	156.381653	245.922272	-135.669189
4400.624106	156.849213	248.902985	-139.409698
4400.627446	158.076569	252.117462	-143.442444
4400.630779	159.011688	255.039734	-148.468719
4400.634116	159.771484	258.663361	-153.202789
4400.637459	160.940384	262.111633	-158.112213
4400.640778	161.232620	265.618347	-163.372314
4400.644108	162.635300	268.365295	-168.515503
4400.647443	163.102875	271.872009	-173.892487
4400.650780	163.687317	275.203400	-179.444763
4400.654107	164.037994	279.528351	-185.230865
4400.657440	164.213333	282.099945	-192.185852
4400.660773	164.973114	286.658691	-198.381073
4400.664106	165.440689	290.282318	-204.926941
4400.667435	165.557571	293.847443	-212.700165
4400.670775	164.914673	297.997070	-220.181183
4400.674109	164.973114	301.737579	-227.662170
4400.677440	164.797791	306.004120	-235.961426
4400.680779	164.622437	310.036835	-244.143768
4400.684108	163.979553	314.186432	-252.267670
4400.687435	163.161316	317.693176	-261.151398
4400.690771	162.518417	321.492126	-270.677979
4400.695463	159.888367	329.206909	-288.386932
4400.698347	158.310349	333.122742	-298.322632
4400.701622	156.615433	336.454132	-307.498535
4400.704963	154.628296	340.253082	-317.960236
4400.708304	152.290482	343.467560	-328.421997
4400.711685	151.004669	346.039154	-338.942108
4400.715045	148.199295	348.552307	-349.053162
4400.718358	145.218597	351.065460	-360.333130
4400.721711	142.939209	354.221527	-370.327301
4400.724966	140.075394	356.734680	-381.490356
4400.727856	137.094681	358.195801	-392.653442
4400.731186	132.652832	360.416718	-403.465820
4400.734528	128.737000	361.585632	-414.511993
4400.737854	125.405609	363.046753	-425.324371
4400.741191	120.963760	364.157227	-436.487457
4400.744548	116.931030	365.676788	-448.293365
4400.747877	112.080063	365.559937	-458.813568
4400.751211	107.345993	365.910583	-469.976654
4400.754117	102.202805	366.085937	-481.315033
4400.757429	97.059616	365.735260	-491.601410
4400.760765	92.033310	365.559937	-504.167145
4400.764096	86.013443	364.274109	-513.985962
4400.767443	80.344238	363.222107	-525.908813
4400.770759	73.389244	362.170105	-536.604309
4400.774096	67.077148	359.949158	-547.650452
4400.777427	60.122150	357.377563	-560.157776
4400.780770	52.699589	354.689087	-570.151917
4400.784096	44.341904	351.357697	-580.789001
4400.787429	36.218002	346.915863	-592.361145
4400.790760	27.158970	342.883118	-603.173523
4400.794092	18.742840	338.207489	-614.453491
4400.797430	8.514903	333.590302	-623.687866
4400.800759	-1.479252	328.797791	-633.214478
4400.804090	-11.298073	321.433685	-644.552856
4400.807425	-21.818233	315.530701	-653.553406
4400.810770	-33.039742	308.634155	-662.203369
4400.814089	-44.378143	301.153137	-671.846863
4400.817429	-56.125660	292.386322	-679.210937
4400.820766	-67.814728	283.911774	-688.854431
4400.824090	-79.445358	274.911163	-695.809448
4400.827426	-91.660431	265.676788	-702.413818
4400.830760	-103.232605	256.033295	-708.492126
4400.834088	-116.090591	245.688507	-713.401428
4400.837426	-128.071884	235.109894	-717.317322
4400.840754	-139.877853	224.297485	-722.986572
4400.844093	-151.625366	212.725311	-725.382751
4400.847425	-163.781998	200.977783	-728.889526
4400.850750	-175.938629	188.938049	-731.285828
4400.854090	-187.393906	177.541199	-731.110413
4400.857424	-198.498550	166.027466	-732.980652
4400.860756	-208.901825	153.987732	-732.571533
4400.864084	-219.714203	141.831085	-732.454712
4400.867421	-229.182343	129.674469	-731.168884
4400.870751	-238.884262	117.517830	-729.941528
4400.874084	-248.177078	106.179428	-727.194641
4400.877420	-257.411469	93.672119	-724.622986
4400.880748	-265.535370	81.807716	-720.181152
4400.884150	-273.893036	69.709534	-716.265320
4400.887420	-281.841644	58.546467	-711.589661
4400.890752	-290.140869	47.324959	-706.446472
4400.895352	-303.641754	24.063705	-694.932739
4400.898301	-309.661591	12.959089	-687.919312
4400.901608	-315.506134	2.263590	-679.795410
4400.904953	-321.467560	-8.373466	-672.372864
4400.908346	-326.493896	-18.718292	-664.658081
4400.911699	-331.286407	-28.887783	-655.131470
4400.915007	-336.429596	-39.057281	-647.299805
4400.918264	-340.403870	-48.817650	-636.896484
4400.921609	-344.378174	-57.701340	-627.720581
4400.924929	-348.352417	-66.818817	-616.674438
4400.927872	-351.040924	-75.176506	-607.089355
4400.931172	-354.021637	-84.177094	-595.517212
4400.934529	-356.534790	-92.710106	-585.406128
4400.937858	-358.989502	-100.541786	-573.424866
4400.941214	-360.275299	-108.256569	-561.092896
4400.944536	-361.327301	-115.503792	-548.644043
4400.947829	-363.197571	-121.757454	-536.604309
4400.951172	-363.840454	-128.654022	-523.921692
4400.954080	-363.314423	-134.556976	-511.706635
4400.957411	-363.723572	-140.459961	-498.848602
4400.960743	-363.548218	-145.427826	-485.347748
4400.964075	-362.320862	-150.220337	-472.197540
4400.967409	-361.444183	-155.071289	-460.566925
4400.970744	-360.041504	-159.045593	-447.592072
4400.974073	-359.164825	-162.493866	-435.260101
4400.977412	-356.651672	-167.461731	-422.811249
4400.980743	-354.664551	-169.974854	-410.362366
4400.984076	-351.859161	-172.838684	-398.673279
4400.987405	-349.287567	-174.592072	-387.159576
4400.990741	-347.066650	-177.222107	-375.996521
4400.994078	-343.559906	-178.741669	-364.599640
4400.997405	-340.520752	-180.495026	-353.553467
4401.000788	-337.598480	-182.073059	-343.851532
4401.004079	-333.332001	-183.066620	-333.740509
4401.007408	-330.701935	-184.527771	-324.623047
4401.010738	-326.552307	-186.047333	-314.687317
4401.014067	-322.870239	-185.872009	-305.277618
4401.017407	-319.714203	-186.865570	-295.458801
4401.020740	-316.207489	-187.450012	-288.445343
4401.024069	-311.940979	-187.157776	-279.444763
4401.027442	-308.726471	-187.625366	-270.561066
4401.030735	-304.459991	-187.099365	-262.904755
4401.034070	-301.070129	-187.157776	-255.073059
4401.037401	-296.511414	-186.807129	-248.176514
4401.040766	-293.472229	-186.514893	-240.812408
4401.044067	-289.322632	-185.988892	-233.448273
4401.047399	-285.699005	-185.346008	-226.259491
4401.050735	-281.198700	-184.936859	-219.187622
4401.054067	-277.516663	-184.293976	-212.057281
4401.057399	-273.425476	-183.592651	-205.628296
4401.060735	-269.743439	-182.891296	-198.497955
4401.064070	-266.002930	-181.722382	-192.068970
4401.067395	-262.203979	-180.787231	-185.990631
4401.070754	-258.405029	-178.916992	-179.620087
4401.074067	-254.489182	-178.507904	-173.775574
4401.077394	-251.157791	-176.696075	-168.106354
4401.080731	-247.709518	-175.293396	-161.326721
4401.084082	-243.793686	-173.773804	-156.884857
4401.087394	-239.234955	-172.312683	-151.683228
4401.090731	-236.254227	-171.085327	-145.546448
4401.095361	-229.533005	-167.520172	-135.961426
4401.098266	-225.383408	-166.409698	-130.292206
4401.101612	-222.636475	-165.065460	-126.434822
4401.104998	-219.305069	-163.604309	-121.116295
4401.108320	-215.447693	-161.734070	-117.142021
4401.111652	-212.583862	-160.214478	-111.823479
4401.114915	-209.194031	-158.578033	-108.258308
4401.118234	-206.330215	-156.766205	-104.985374
4401.121160	-203.174164	-155.363525	-101.478661
4401.124497	-200.076569	-153.960846	-97.445930
4401.127840	-197.329620	-151.915253	-94.348335
4401.131167	-194.699585	-150.921692	-91.250725
4401.134513	-191.192871	-149.518982	-87.743996
4401.137849	-188.913498	-147.999420	-85.230858
4401.140753	-186.517242	-146.830505	-83.009926
4401.144057	-183.945633	-145.077148	-80.789009
4401.147397	-181.841614	-144.200470	-77.340721
4401.150730	-179.854477	-143.265350	-75.704262
4401.154060	-177.399765	-142.330200	-73.015785
4401.157393	-175.003494	-140.810638	-71.087074
4401.160724	-172.315018	-140.050842	-69.158379
4401.164059	-170.970764	-138.589722	-67.288124
4401.167395	-168.983627	-137.888367	-65.885445
4401.170753	-166.704269	-136.427216	-63.722954
4401.174056	-164.950897	-135.492096	-61.735832
4401.177390	-163.255981	-134.030975	-60.040901
4401.180718	-161.093506	-133.680298	-57.995323
4401.184059	-158.931030	-132.803619	-56.767967
4401.187386	-157.119217	-131.517822	-55.189949
4401.190717	-155.190521	-130.348907	-54.430153
4401.194054	-153.904739	-129.004669	-52.326118
4401.197388	-151.625366	-128.478668	-50.923439
4401.200723	-150.456467	-127.251305	-49.871422
4401.204049	-148.936874	-126.608406	-48.351845
4401.207382	-147.358856	-125.673286	-46.072472
4401.210741	-145.722382	-124.621284	-44.903557
4401.214078	-144.202805	-123.043251	-43.617760
4401.217384	-142.566330	-123.043251	-41.864403
4401.220721	-140.988312	-121.582115	-40.227928
4401.224054	-139.527176	-120.939217	-38.942146
4401.227380	-137.598480	-119.594978	-37.013435
4401.230720	-136.721802	-118.893623	-35.493858
4401.234056	-135.494446	-117.958504	-35.493858
4401.237377	-133.974869	-117.140266	-34.208061
4401.240718	-132.572189	-116.731148	-31.811806
4401.244046	-131.812393	-114.977791	-31.870247
4401.247386	-130.351257	-114.744011	-30.116890
4401.252075	-127.136765	-113.516655	-28.947975
4401.254916	-126.902985	-112.873756	-27.837517
4401.258353	-125.850952	-111.646400	-26.668617
4401.261644	-124.272934	-110.711281	-25.791924
4401.264920	-123.162476	-109.600807	-25.324364
4401.268235	-122.110458	-109.308601	-24.973694
4401.271559	-121.701340	-109.425484	-24.097015
4401.274919	-120.532440	-108.899467	-23.980125
4401.278254	-119.831100	-108.548805	-22.577431
4401.281167	-119.363525	-107.964348	-21.642311
4401.284499	-118.545288	-107.613670	-22.109871
4401.287868	-117.727066	-107.262993	-21.583862
4401.291133	-117.843948	-106.620110	-22.051422
4401.294487	-116.967270	-106.853889	-21.700760
4401.297813	-115.798355	-107.087669	-20.940964
4401.300750	-115.915253	-106.795433	-20.882515
4401.304044	-115.213898	-106.736992	-21.642311
4401.307374	-114.863235	-106.444771	-20.298073
4401.310708	-114.220337	-106.035652	-19.655174
4401.314043	-113.518997	-106.035652	-20.414955
4401.317371	-113.168320	-105.801872	-20.531853
4401.320709	-112.934540	-106.444771	-20.298073
4401.324038	-112.291641	-106.152534	-19.304497
4401.327372	-112.116318	-106.152534	-18.895378
4401.330705	-111.531860	-106.327873	-18.486267
4401.334038	-111.356522	-106.035652	-18.836929
4401.337372	-111.181168	-105.801872	-18.778481
4401.340743	-110.479828	-105.509651	-18.310921
4401.344099	-110.304504	-105.684975	-19.012268
4401.347372	-109.953827	-105.217415	-18.310921
4401.350709	-109.778488	-105.042076	-18.486267
4401.354037	-108.901810	-105.509651	-17.901810
4401.357367	-109.486267	-105.509651	-17.609581
4401.360703	-108.375793	-105.217415	-17.668022
4401.364036	-108.025131	-105.100533	-17.668022
4401.367369	-108.083588	-105.568092	-17.200462
4401.370698	-108.434250	-105.509651	-17.434242
4401.374031	-108.025131	-105.568092	-17.142014
4401.377374	-107.966690	-105.392754	-16.499123
4401.380701	-107.382233	-105.392754	-16.265335
4401.384034	-107.499115	-105.217415	-16.382225
4401.387370	-107.148453	-105.509651	-16.674454
4401.390701	-106.914673	-105.860313	-16.499123
4401.394052	-106.856232	-106.094093	-16.031555
4401.397368	-106.856232	-106.269432	-16.323784
4401.400703	-106.914673	-106.094093	-15.914658
4401.404035	-107.382233	-106.444771	-15.622444
4401.407366	-107.616013	-106.853889	-16.557564
4401.410751	-107.849792	-107.496773	-16.908234
4401.414033	-107.908234	-107.789009	-17.668022
4401.417364	-108.317368	-108.256569	-17.317345
4401.420701	-108.083588	-108.665688	-18.018707
4401.424035	-108.317368	-109.191704	-18.603149
4401.427362	-108.960251	-109.893044	-19.479828
4401.430732	-109.603149	-110.594383	-19.479828
4401.434035	-109.661606	-110.769737	-19.713608
4401.437370	-110.246048	-111.821739	-20.064285
4401.440695	-111.005844	-112.639977	-21.700760
4401.444027	-110.830505	-113.808891	-21.817642
4401.448711	-111.473404	-116.146706	-23.395676
4401.451624	-112.057861	-115.912926	-24.097015
4401.454979	-112.350082	-117.315605	-25.149025
4401.458283	-112.876083	-118.192284	-25.032143
4401.461546	-113.051437	-118.426064	-25.967270
4401.464870	-113.343658	-119.945656	-26.551720
4401.468224	-114.395676	-120.822334	-27.662193
4401.471566	-115.155472	-121.932793	-28.538872
4401.474929	-115.389252	-122.108116	-28.714195
4401.478305	-115.623032	-123.627708	-29.883110
4401.481149	-116.616592	-124.738167	-30.233788
4401.484467	-116.908813	-125.264168	-30.993568
4401.487778	-117.843948	-126.199303	-31.344246
4401.491114	-118.019272	-127.485085	-32.396248
4401.494458	-118.720627	-128.011108	-32.922264
4401.497804	-119.772644	-129.238464	-33.389824
4401.501118	-120.123306	-129.647583	-34.208061
4401.504452	-120.707764	-131.751587	-35.260078
4401.507355	-121.292236	-132.511383	-36.312096
4401.510692	-122.578018	-133.855621	-37.305672
4401.514020	-122.694916	-134.907654	-37.714790
4401.517371	-123.980713	-136.485687	-38.708351
4401.520689	-125.266510	-137.479248	-39.585030
4401.524019	-125.734070	-138.648163	-39.877266
4401.527377	-126.493851	-140.343079	-41.163063
4401.530684	-127.019867	-141.395081	-42.799522
4401.534016	-128.305664	-143.265350	-43.968437
4401.537355	-129.123901	-144.434235	-45.897133
4401.540684	-130.585037	-145.661591	-47.007591
4401.544015	-131.403275	-147.531860	-48.877846
4401.547356	-133.156631	-149.226776	-50.748085
4401.550684	-133.741089	-151.038574	-52.618340
4401.554015	-135.552887	-153.025726	-54.430153
4401.557348	-136.312683	-155.305084	-56.300407
4401.560696	-137.481583	-157.292236	-58.053764
4401.564013	-138.650497	-159.571594	-60.040901
4401.567354	-140.637634	-161.967865	-63.547630
4401.570679	-141.689651	-164.247223	-65.476326
4401.574018	-143.384567	-166.175934	-68.457039
4401.577346	-144.319702	-169.039734	-70.385735
4401.580678	-146.189941	-170.851532	-73.015785
4401.584016	-147.300400	-173.715363	-76.171822
4401.587351	-148.819992	-176.111633	-78.568077
4401.590750	-150.631790	-178.916992	-82.133247
4401.594021	-151.742249	-181.547028	-84.880180
4401.597345	-153.846283	-183.475739	-88.153114
4401.600678	-154.781403	-187.099365	-90.490944
4401.604024	-156.359436	-189.203400	-94.114540
4401.607351	-157.294571	-191.774994	-98.264168
4401.610673	-158.697250	-194.638824	-101.361763
4401.614010	-160.216827	-197.210388	-104.108711
4401.617342	-161.853302	-199.489777	-107.907646
4401.621580	-165.652252	-205.275848	-115.154884
4401.624897	-166.879608	-206.970795	-118.077156
4401.628218	-169.042084	-210.594391	-122.109886
4401.631633	-170.152542	-213.224426	-125.908821
4401.634960	-171.730560	-215.912903	-130.409119
4401.638185	-173.308578	-218.893616	-134.675629
4401.641522	-175.412628	-221.815887	-138.533020
4401.644438	-177.049103	-224.504395	-142.974884
4401.647769	-178.744003	-227.835754	-147.241364
4401.651098	-180.555817	-231.342499	-151.741669
4401.654441	-182.016937	-233.972504	-157.118652
4401.657793	-183.185852	-236.661011	-163.080078
4401.660677	-185.172989	-240.050842	-167.755707
4401.664029	-186.984802	-243.382233	-173.775574
4401.667335	-189.205719	-246.479828	-179.970795
4401.670735	-189.965515	-250.161896	-186.282867
4401.674012	-192.595566	-254.194611	-193.120972
4401.677353	-193.589127	-257.350677	-200.134430
4401.680669	-195.517838	-260.506714	-207.264771
4401.684005	-196.803619	-264.305634	-215.739349
4401.687335	-198.849213	-267.578613	-223.045013
4401.690675	-200.251892	-271.319122	-231.110443
4401.694003	-201.654587	-275.351837	-240.227936
4401.697344	-202.589706	-278.390991	-248.351837
4401.700670	-204.284622	-282.482147	-258.229126
4401.704008	-204.343063	-285.988892	-266.820587
4401.707360	-206.096436	-289.612488	-276.873199
4401.710671	-206.330215	-293.762115	-287.042664
4401.714005	-208.492691	-297.035065	-296.919952
4401.717338	-207.908234	-300.366425	-307.147858
4401.720668	-209.135590	-304.282288	-318.544708
4401.724001	-209.486252	-307.029205	-329.064880
4401.727332	-209.369385	-310.711273	-340.227966
4401.730673	-208.668030	-313.341309	-352.384583
4401.733996	-208.726456	-316.906494	-363.898315
4401.737327	-208.434250	-319.653412	-376.054932
4401.740673	-208.142029	-321.757446	-388.094696
4401.743995	-207.090012	-324.855042	-400.251312
4401.747333	-206.213318	-326.666840	-412.232635
4401.750695	-205.453522	-327.835754	-424.330780
4401.753998	-203.992401	-330.348907	-437.071869
4401.757330	-202.297485	-332.452942	-450.689667
4401.760665	-201.070129	-333.914062	-463.080109
4401.764010	-199.316772	-335.199860	-476.464081
4401.767325	-197.154297	-337.362335	-488.971344
4401.770658	-194.816483	-337.362335	-502.472260
4401.773994	-192.361771	-337.596130	-515.856201
4401.777327	-189.790192	-338.297485	-528.246643
4401.781538	-183.302750	-338.355927	-556.358826
4401.784956	-179.854477	-337.596130	-569.392151
4401.788262	-175.938629	-335.492096	-583.945007
4401.791606	-171.905899	-333.914062	-597.562805
4401.794876	-168.165390	-332.803619	-611.531250
4401.798178	-163.022202	-332.102264	-625.499695
4401.801083	-157.119217	-328.186432	-638.533020
4401.804416	-152.385147	-324.913483	-652.852112
4401.807751	-145.254822	-320.705414	-666.177673
4401.811130	-138.825836	-318.016937	-680.204529
4401.814443	-131.812393	-313.341309	-695.049683
4401.817777	-124.506714	-309.425476	-708.024536
4401.820665	-115.681473	-303.522491	-720.765625
4401.823994	-108.083588	-297.502625	-732.571533
4401.827325	-97.972534	-291.015167	-745.429565
4401.830658	-88.504379	-284.586212	-758.287598
4401.833991	-78.451782	-277.105194	-769.041504
4401.837360	-67.639389	-268.864410	-780.496704
4401.840654	-57.119228	-260.389801	-789.731140
4401.843984	-46.189945	-251.739929	-800.192871
4401.847319	-34.267097	-242.856232	-808.842773
4401.850676	-22.519581	-232.745178	-816.557556
4401.853988	-10.888954	-223.569275	-823.980103
4401.857323	1.092343	-213.282867	-829.883057
4401.860659	13.365868	-203.639374	-835.435425
4401.863982	27.042080	-192.417877	-841.046204
4401.867321	38.614258	-180.728821	-843.325439
4401.870653	51.589130	-169.565765	-845.721741
4401.873982	63.745762	-157.876678	-848.293335
4401.877320	76.077728	-146.070709	-849.462280
4401.880646	88.818817	-134.147858	-849.170044
4401.883979	100.507889	-122.108116	-849.403809
4401.887323	112.138519	-110.594383	-848.001160
4401.890648	123.535355	-98.496201	-846.949158
4401.894000	134.932205	-85.346001	-843.208618
4401.897313	146.387497	-74.007599	-840.929260
4401.900649	157.492111	-62.143188	-835.552246
4401.903987	167.778503	-49.635887	-830.993530
4401.907322	178.357101	-37.771477	-826.200989
4401.910645	188.409698	-25.264172	-819.362854
4401.913982	198.812973	-13.575100	-812.641663
4401.917315	207.755112	-1.827585	-805.277588
4401.920645	216.638824	9.803040	-798.030334
4401.925350	233.061951	33.765636	-779.736938
4401.928192	241.244308	43.993572	-770.911743
4401.931594	248.842209	55.331970	-759.748718
4401.934907	255.914078	65.735245	-749.170044
4401.938188	262.635284	76.489182	-738.649902
4401.941487	269.239624	87.126244	-726.434814
