time (s)	det(V)
3871.295635	1.487595	
3871.297151	1.583904	
3871.298759	1.676757	
3871.300279	1.698482	
3871.301843	1.702143	
3871.303440	1.702059	
3871.304935	1.702159	
3871.306600	1.702361	
3871.308101	1.702655	
3871.309720	1.702304	
3871.311246	1.702772	
3871.312888	1.702389	
3871.314371	1.702635	
3871.316026	1.702744	
3871.317518	1.702647	
3871.319238	1.702764	
3871.320721	1.702683	
3871.322435	1.702736	
3871.323926	1.702876	
3871.325637	1.702723	
3871.327120	1.702655	
3871.328785	1.702816	
3871.330308	1.702615	
3871.331948	1.702756	
3871.333497	1.702699	
3871.335203	1.702820	
3871.336762	1.702735	
3871.338448	1.702868	
3871.340010	1.702840	
3871.341667	1.702877	
3871.343262	1.702768	
3871.344906	1.702727	
3871.346507	1.702675	
3871.348159	1.702909	
3871.349768	1.702735	
3871.351411	1.702981	
3871.353027	1.702691	
3871.354657	1.702780	
3871.356330	1.702691	
3871.357921	1.702808	
3871.359603	1.702651	
3871.361187	1.702836	
3871.362861	1.702699	
3871.364449	1.702965	
3871.366117	1.702735	
3871.367682	1.702816	
3871.369377	1.702780	
3871.370916	1.702796	
3871.372621	1.702792	
3871.374127	1.702764	
3871.375898	1.702804	
3871.377388	1.702864	
3871.379149	1.702840	
3871.380642	1.702901	
3871.382414	1.702832	
3871.383896	1.702820	
3871.385679	1.702824	
3871.387160	1.702897	
3871.388944	1.702865	
3871.390438	1.702756	
3871.392178	1.702788	
3871.393684	1.702748	
3871.395436	1.702840	
3871.396951	1.702740	
3871.398677	1.702877	
3871.400199	1.702731	
3871.401900	1.702860	
3871.403449	1.702872	
3871.405164	1.702840	
3871.406730	1.702776	
3871.408437	1.702953	
3871.410004	1.702727	
3871.411683	1.702856	
3871.413260	1.702699	
3871.414921	1.702877	
3871.416515	1.702663	
3871.418173	1.702885	
3871.419792	1.702639	
3871.421420	1.702864	
3871.423057	1.702663	
3871.424687	1.702816	
3871.426326	1.702595	
3871.427937	1.702832	
3871.429591	1.702728	
3871.431083	1.702784	
3871.432645	1.702764	
3871.434142	1.702724	
3871.435775	1.702756	
3871.437259	1.702804	
3871.438895	1.702772	
3871.440392	1.702748	
3871.441976	1.702719	
3871.443510	1.702578	
3871.445037	1.702828	
3871.446664	1.702719	
3871.448156	1.702808	
3871.449769	1.702711	
3871.451305	1.702768	
3871.452940	1.702747	
3871.454418	1.702772	
3871.456069	1.702788	
3871.457547	1.702679	
3871.459252	1.702808	
3871.460738	1.702743	
3871.462454	1.702784	
3871.463942	1.702800	
3871.465648	1.702764	
3871.467139	1.702744	
3871.468833	1.702860	
3871.470351	1.702764	
3871.472013	1.702860	
3871.473535	1.702643	
3871.475180	1.702735	
3871.476729	1.702748	
3871.478425	1.702808	
3871.480002	1.702784	
3871.481682	1.702824	
3871.483262	1.702639	
3871.484932	1.702784	
3871.486522	1.702695	
3871.488169	1.702873	
3871.489768	1.702760	
3871.491387	1.702844	
3871.493005	1.702667	
3871.494615	1.702800	
3871.496296	1.702727	
3871.497885	1.702804	
3871.499575	1.702695	
3871.501163	1.702852	
3871.502853	1.702691	
3871.504442	1.702756	
3871.506126	1.702667	
3871.507703	1.702832	
3871.509390	1.702683	
3871.510938	1.702764	
3871.512662	1.702667	
3871.514200	1.702812	
3871.515924	1.702740	
3871.517439	1.702728	
3871.519169	1.702752	
3871.520659	1.702860	
3871.522452	1.702679	
3871.523930	1.702723	
3871.525724	1.702804	
3871.527207	1.702651	
3871.528981	1.702333	
3871.530465	1.702675	
3871.532211	1.702715	
3871.533715	1.702711	
3871.535471	1.702675	
3871.536982	1.702760	
3871.538705	1.702663	
3871.540223	1.702591	
3871.541953	1.702365	
3871.543488	1.702703	
3871.545192	1.702268	
3871.546736	1.702607	
3871.548438	1.702514	
3871.550009	1.702313	
3871.551708	1.702425	
3871.553280	1.701849	
3871.554948	1.699722	
3871.556534	1.664974	
3871.558174	1.688233	
3871.559763	1.649578	
3871.561381	1.657147	
3871.563012	1.552689	
3871.564618	1.592807	
3871.566312	1.491068	
3871.567922	1.546944	
3871.569565	1.444069	
3871.571168	1.483768	
3871.572836	1.358314	
3871.574411	1.423698	
3871.576102	1.385211	
3871.577656	1.363756	
3871.579349	1.323622	
3871.580903	1.301172	
3871.582618	1.284294	
3871.584176	1.274215	
3871.585914	1.284330	
3871.587417	1.267371	
3871.589182	1.230278	
3871.590666	1.221416	
3871.592453	1.197830	
3871.593938	1.152249	
3871.595469	1.172109	
3871.597022	1.086765	
3871.598582	1.149615	
3871.600145	1.024366	
3871.601668	1.149087	
3871.603306	1.091873	
3871.604795	1.091647	
3871.606428	1.004450	
3871.607951	1.065701	
3871.609595	1.044766	
3871.611071	0.984736	
3871.612705	1.028709	
3871.614187	1.021502	
3871.615821	1.079159	
3871.617316	0.994267	
3871.619017	1.063381	
3871.620519	1.005885	
3871.622212	1.033196	
3871.623704	0.925910	
3871.625371	0.967209	
3871.626886	0.870021	
3871.628523	1.035763	
3871.630064	0.905168	
3871.631691	0.914752	
3871.633275	0.876051	
3871.634944	0.966447	
3871.636526	0.781535	
3871.638187	0.924198	
3871.639795	0.797121	
3871.641437	0.889792	
3871.643034	0.771472	
3871.644667	0.818757	
3871.646302	0.692050	
3871.647911	0.781249	
3871.649569	0.742102	
3871.651148	0.717505	
3871.652839	0.675546	
3871.654424	0.706363	
3871.656107	0.601058	
3871.657678	0.625784	
3871.659358	0.577775	
3871.660922	0.596458	
3871.662638	0.553049	
3871.664182	0.572606	
3871.665903	0.550193	
3871.667408	0.527682	
3871.669163	0.477026	
3871.670653	0.481744	
3871.672414	0.487137	
3871.673903	0.444010	
3871.675698	0.429988	
3871.677175	0.392585	
3871.678960	0.385600	
3871.680443	0.350839	
3871.682215	0.407006	
3871.683711	0.311853	
3871.685468	0.333723	
3871.686987	0.288098	
3871.688741	0.329598	
3871.690260	0.257439	
3871.691986	0.329952	
3871.693516	0.236552	
3871.695237	0.295039	
3871.696784	0.194202	
3871.698480	0.309235	
3871.700035	0.197256	
3871.701726	0.273580	
3871.703301	0.190597	
3871.704959	0.283059	
3871.706533	0.111307	
3871.708182	0.237700	
3871.709776	0.093228	
3871.711419	0.241938	
3871.713050	0.126385	
3871.714667	0.244109	
3871.716309	0.152086	
3871.717917	0.203101	
3871.719565	0.114421	
3871.721162	0.208942	
3871.722816	0.109422	
3871.724397	0.181662	
3871.726094	0.093772	
3871.727643	0.179539	
3871.729364	0.101337	
3871.730899	0.158745	
3871.732587	0.176582	
3871.734081	0.095774	
3871.735645	0.136303	
3871.737157	0.168642	
3871.738741	0.157572	
3871.740280	0.095963	
3871.741838	0.169508	
3871.743428	0.066976	
3871.744925	0.120000	
3871.746583	0.077171	
3871.748083	0.175406	
3871.749728	0.137729	
3871.751256	0.146797	
3871.752899	0.187934	
3871.754390	0.135932	
3871.756033	0.156002	
3871.757514	0.093079	
3871.759236	0.144114	
3871.760723	0.102417	
3871.762436	0.170661	
3871.763927	0.108423	
3871.765649	0.187704	
3871.767133	0.131163	
3871.768813	0.169649	
3871.770316	0.118220	
3871.771992	0.153383	
3871.773531	0.063950	
3871.775263	0.170806	
3871.776809	0.078682	
3871.778515	0.189034	
3871.780059	0.088950	
3871.781732	0.183886	
3871.783290	0.051918	
3871.784975	0.167478	
3871.786559	0.028751	
3871.788224	0.160618	
3871.789830	0.018193	
3871.791478	0.108415	
3871.793075	0.012295	
3871.794711	0.113680	
3871.796318	-0.018147	
3871.797949	0.106348	
3871.799638	0.013600	
3871.801220	0.064418	
3871.802891	0.006373	
3871.804462	0.053199	
3871.806152	-0.026224	
3871.807734	-0.013784	
3871.809397	-0.066958	
3871.810957	-0.019118	
3871.812668	-0.072191	
3871.814211	-0.005703	
3871.815934	-0.051807	
3871.817445	-0.035843	
3871.819198	-0.063208	
3871.820697	-0.052424	
3871.822456	-0.043142	
3871.823948	-0.096486	
3871.825736	-0.107938	
3871.827217	-0.150916	
3871.828992	-0.140410	
3871.830474	-0.149651	
3871.832250	-0.085875	
3871.833735	-0.183401	
3871.835477	-0.130191	
3871.836981	-0.199260	
3871.838723	-0.162594	
3871.840249	-0.272841	
3871.841990	-0.154002	
3871.843523	-0.218532	
3871.845238	-0.196642	
3871.846780	-0.254782	
3871.848493	-0.159710	
3871.850048	-0.256354	
3871.851741	-0.157019	
3871.853313	-0.309342	
3871.854985	-0.170546	
3871.856557	-0.299126	
3871.858240	-0.188605	
3871.859827	-0.329576	
3871.861490	-0.216409	
3871.863097	-0.296512	
3871.864714	-0.196219	
3871.866348	-0.283484	
3871.867952	-0.205355	
3871.869621	-0.283859	
3871.871096	-0.325596	
3871.872657	-0.318043	
3871.874155	-0.357049	
3871.875796	-0.266283	
3871.877295	-0.332682	
3871.878919	-0.298470	
3871.880429	-0.377364	
3871.882011	-0.278662	
3871.883558	-0.313850	
3871.885098	-0.301680	
3871.886700	-0.373368	
3871.888197	-0.283388	
3871.889831	-0.342753	
3871.891400	-0.305624	
3871.893019	-0.356933	
3871.894550	-0.284564	
3871.896253	-0.317737	
3871.897732	-0.311630	
3871.899457	-0.315111	
3871.900932	-0.294635	
3871.902642	-0.318539	
3871.904131	-0.344803	
3871.905839	-0.302409	
3871.907325	-0.383644	
3871.909031	-0.352369	
3871.910514	-0.335860	
3871.912282	-0.329762	
3871.913774	-0.346080	
3871.915538	-0.308883	
3871.917029	-0.336219	
3871.918775	-0.351031	
3871.920282	-0.369114	
3871.922020	-0.360167	
3871.923542	-0.450039	
3871.925272	-0.379443	
3871.926814	-0.458664	
3871.928528	-0.394364	
3871.930064	-0.477593	
3871.931763	-0.368667	
3871.933317	-0.501912	
3871.934994	-0.419799	
3871.936561	-0.575014	
3871.938226	-0.446096	
3871.939826	-0.601073	
3871.941461	-0.505034	
3871.943087	-0.643556	
3871.944730	-0.523919	
3871.946334	-0.650791	
3871.947959	-0.545595	
3871.949628	-0.671319	
3871.951213	-0.616904	
3871.952888	-0.720924	
3871.954468	-0.649030	
3871.956169	-0.799286	
3871.957760	-0.719969	
3871.959443	-0.889448	
3871.961015	-0.782239	
3871.962711	-0.873331	
3871.964261	-0.836669	
3871.965960	-0.878592	
3871.967516	-0.881347	
3871.969247	-0.952371	
3871.970782	-0.916084	
3871.972519	-0.983711	
3871.974017	-1.043616	
3871.975765	-1.093120	
3871.977260	-1.077736	
3871.979026	-1.144900	
3871.980506	-1.132388	
3871.982298	-1.111070	
3871.983777	-1.176527	
3871.985557	-1.173199	
3871.987045	-1.253975	
3871.988782	-1.200721	
3871.990296	-1.362643	
3871.992044	-1.321667	
3871.993561	-1.375916	
3871.995281	-1.307427	
3871.996811	-1.439399	
3871.998532	-1.337365	
3872.000075	-1.439930	
3872.001764	-1.381580	
3872.003317	-1.543531	
3872.004982	-1.427676	
3872.006584	-1.544505	
3872.008074	-1.539716	
3872.009721	-1.549968	
3872.011247	-1.548699	
3872.012900	-1.545492	
3872.014400	-1.549605	
3872.016040	-1.547390	
3872.017538	-1.550625	
3872.019186	-1.550794	
3872.020662	-1.550955	
3872.022303	-1.550943	
3872.023789	-1.550846	
3872.025390	-1.551104	
3872.026912	-1.550955	
3872.028477	-1.550862	
3872.030040	-1.551068	
3872.031661	-1.551156	
3872.033260	-1.550975	
3872.034854	-1.551036	
3872.036474	-1.551080	
3872.038026	-1.551124	
3872.039658	-1.550971	
3872.041169	-1.551132	
3872.042849	-1.550995	
3872.044327	-1.551148	
3872.046046	-1.551120	
3872.047533	-1.551180	
3872.049236	-1.551132	
3872.050790	-1.551201	
3872.052511	-1.551265	
3872.054008	-1.551185	
3872.055764	-1.551136	
3872.057250	-1.551189	
3872.059019	-1.551064	
3872.060501	-1.551205	
3872.062277	-1.551088	
3872.063766	-1.551245	
3872.065528	-1.551221	
3872.067018	-1.551197	
3872.068775	-1.551205	
3872.070277	-1.551245	
3872.072025	-1.551100	
3872.073545	-1.551269	
3872.075271	-1.551180	
3872.076805	-1.551237	
3872.078502	-1.551225	
3872.080051	-1.551225	
3872.081733	-1.551177	
3872.083291	-1.551269	
3872.084970	-1.551136	
3872.086542	-1.551229	
3872.088211	-1.551044	
3872.089800	-1.551213	
3872.091438	-1.551180	
3872.093057	-1.551273	
3872.094699	-1.551237	
3872.096311	-1.551269	
3872.097936	-1.551176	
3872.099589	-1.551297	
3872.101197	-1.551201	
3872.102870	-1.551253	
3872.104445	-1.551213	
3872.106120	-1.551233	
3872.107680	-1.551160	
3872.109384	-1.551305	
3872.110945	-1.551193	
3872.112644	-1.551338	
3872.114194	-1.551172	
3872.115896	-1.551241	
3872.117424	-1.551233	
3872.119152	-1.551289	
3872.120642	-1.551326	
3872.122425	-1.551112	
3872.123914	-1.551245	
3872.125690	-1.551184	
3872.127182	-1.551221	
3872.128971	-1.551213	
3872.130453	-1.551281	
3872.132234	-1.551213	
3872.133714	-1.551265	
3872.135474	-1.551128	
3872.136975	-1.551185	
3872.138717	-1.551152	
3872.140234	-1.551293	
3872.141968	-1.551152	
3872.143499	-1.551281	
3872.145209	-1.551189	
3872.146755	-1.551342	
3872.148457	-1.551309	
3872.150007	-1.551342	
3872.151707	-1.551209	
3872.153271	-1.551277	
3872.154939	-1.551201	
3872.156521	-1.551322	
3872.158194	-1.551132	
3872.159804	-1.551293	
3872.161312	-1.551346	
3872.162953	-1.551293	
3872.164478	-1.551277	
3872.166115	-1.551269	
3872.167609	-1.551293	
3872.169255	-1.551394	
3872.170740	-1.551297	
3872.172382	-1.551325	
3872.173868	-1.551293	
3872.175517	-1.551253	
3872.177015	-1.551354	
3872.178609	-1.551257	
3872.180148	-1.551277	
3872.181686	-1.551160	
3872.183288	-1.551342	
3872.184880	-1.551197	
3872.186487	-1.551366	
3872.188054	-1.551265	
3872.189661	-1.551273	
3872.191188	-1.551253	
3872.192872	-1.551265	
3872.194348	-1.551180	
3872.196051	-1.551338	
3872.197522	-1.551237	
3872.199235	-1.551301	
3872.200728	-1.551261	
3872.202434	-1.551301	
3872.203925	-1.551249	
3872.205712	-1.551132	
3872.207198	-1.551213	
3872.208976	-1.551209	
3872.210463	-1.551253	
3872.212236	-1.551180	
3872.213713	-1.551229	
3872.215501	-1.551261	
3872.217002	-1.551285	
3872.218767	-1.551112	
3872.220269	-1.551249	
3872.222020	-1.551257	
3872.223541	-1.551217	
3872.225252	-1.551080	
3872.226790	-1.551269	
3872.228515	-1.551152	
3872.230058	-1.551205	
3872.231766	-1.551229	
3872.233324	-1.551346	
3872.235020	-1.551197	
3872.236577	-1.551301	
3872.238258	-1.551124	
3872.239842	-1.551305	
3872.241507	-1.551035	
3872.243112	-1.551370	
3872.244743	-1.551160	
3872.246359	-1.551253	
3872.247991	-1.551168	
3872.249597	-1.551297	
3872.251217	-1.551237	
3872.252868	-1.551237	
3872.254455	-1.551193	
3872.256136	-1.551249	
3872.257689	-1.551213	
3872.259388	-1.551217	
3872.260969	-1.551209	
3872.262643	-1.551221	
3872.264209	-1.551261	
3872.265908	-1.551209	
3872.267458	-1.551225	
3872.269177	-1.551144	
3872.270677	-1.551185	
3872.272447	-1.551128	
3872.273930	-1.551265	
3872.275711	-1.551197	
3872.277189	-1.551180	
3872.278960	-1.551245	
3872.280453	-1.551108	
3872.282236	-1.551076	
3872.283720	-1.551197	
3872.285508	-1.551120	
3872.287002	-1.551225	
3872.288748	-1.551039	
3872.290257	-1.551201	
3872.291995	-1.551084	
3872.293509	-1.551269	
3872.295240	-1.551019	
3872.296765	-1.551249	
3872.298465	-1.550983	
3872.300019	-1.551189	
3872.301722	-1.550979	
3872.303336	-1.550766	
3872.304826	-1.524465	
3872.306480	-1.539893	
3872.307966	-1.477047	
3872.309607	-1.393629	
3872.311132	-1.346171	
3872.312770	-1.277053	
3872.314249	-1.212169	
3872.315897	-1.122491	
3872.317383	-1.094192	
3872.319016	-0.929127	
3872.320508	-0.930473	
3872.322124	-0.808362	
3872.323640	-0.826115	
3872.325303	-0.630331	
3872.326839	-0.661756	
3872.328499	-0.511032	
3872.330034	-0.560746	
3872.331657	-0.342656	
3872.333227	-0.420947	
3872.334810	-0.245179	
3872.336413	-0.239342	
3872.337954	-0.101654	
3872.339589	-0.120333	
3872.341072	-0.004720	
3872.342798	-0.019786	
3872.344377	0.134716	
3872.346088	0.151518	
3872.347665	0.261282	
3872.349332	0.309617	
3872.350893	0.447052	
3872.352600	0.429021	
3872.354153	0.524544	
3872.355866	0.523984	
3872.357384	0.652222	
3872.359130	0.675143	
3872.360630	0.715447	
3872.362398	0.780633	
3872.363884	0.881256	
3872.365654	0.915819	
3872.367145	0.961706	
3872.368924	1.042574	
3872.370403	1.126363	
3872.372195	1.167327	
3872.373673	1.201246	
3872.375419	1.266424	
3872.376927	1.287883	
3872.378664	1.387761	
3872.380193	1.403069	
3872.381954	1.540644	
3872.383472	1.499140	
3872.385198	1.633150	
3872.386732	1.644168	
3872.388433	1.699594	
3872.389986	1.701269	
3872.391680	1.701733	
3872.393251	1.701672	
3872.394934	1.702244	
3872.396517	1.702461	
3872.398187	1.702731	
3872.399773	1.702494	
3872.401428	1.702369	
3872.403043	1.702449	
3872.404664	1.702731	
3872.406284	1.702365	
3872.407897	1.702812	
3872.409568	1.702361	
3872.411171	1.702780	
3872.412817	1.702534	
3872.414419	1.702808	
3872.416107	1.702590	
3872.417675	1.702836	
3872.419373	1.702719	
3872.420939	1.702691	
3872.422631	1.702651	
3872.424189	1.702780	
3872.425878	1.702627	
3872.427421	1.702703	
3872.429142	1.702768	
3872.430652	1.702756	
3872.432410	1.702748	
3872.433891	1.702703	
3872.435672	1.702695	
3872.437156	1.702647	
3872.438921	1.702796	
3872.440407	1.702824	
3872.442196	1.702772	
3872.443690	1.702748	
3872.445469	1.702739	
3872.446966	1.702715	
3872.448713	1.702727	
3872.450226	1.702715	
3872.451964	1.702784	
3872.453489	1.702635	
3872.455198	1.702744	
3872.456735	1.702711	
3872.458434	1.702868	
3872.460005	1.702699	
3872.461503	1.702631	
3872.463161	1.702711	
3872.464652	1.702715	
3872.466291	1.702756	
3872.467820	1.702764	
3872.469460	1.702772	
3872.470957	1.702736	
3872.472621	1.702816	
3872.474094	1.702752	
3872.475743	1.702647	
3872.477231	1.702651	
3872.478877	1.702679	
3872.480360	1.702655	
3872.481961	1.702788	
3872.483479	1.702716	
3872.485121	1.702933	
3872.486674	1.702667	
3872.488286	1.702727	
3872.489881	1.702740	
3872.491462	1.702776	
3872.493077	1.702723	
3872.494618	1.702804	
3872.496261	1.702683	
3872.497757	1.702788	
3872.499461	1.702687	
3872.501062	1.702820	
3872.502740	1.702740	
3872.504311	1.702812	
3872.505997	1.702736	
3872.507547	1.702800	
3872.509257	1.702796	
3872.510807	1.702824	
3872.512503	1.702667	
3872.514033	1.702804	
3872.515770	1.702727	
3872.517273	1.702848	
3872.519055	1.702727	
3872.520537	1.702804	
3872.522308	1.702772	
3872.523791	1.702687	
3872.525574	1.702832	
3872.527054	1.702728	
3872.528838	1.702868	
3872.530328	1.702800	
3872.532098	1.702663	
3872.533595	1.702804	
3872.535320	1.702776	
3872.536835	1.702731	
3872.538567	1.702832	
3872.540100	1.702659	
3872.541814	1.702816	
3872.543356	1.702735	
3872.545052	1.702735	
3872.546605	1.702739	
3872.548302	1.702869	
3872.549869	1.702744	
3872.551546	1.702804	
3872.553118	1.702687	
3872.554782	1.702901	
3872.556389	1.702744	
3872.558032	1.702808	
3872.559649	1.702691	
3872.561277	1.702776	
3872.562914	1.702643	
3872.564528	1.702780	
3872.566191	1.702683	
3872.567781	1.702917	
3872.569456	1.702715	
3872.571051	1.702804	
3872.572744	1.702667	
3872.574317	1.702836	
3872.575991	1.702715	
3872.577545	1.702852	
3872.579221	1.702695	
3872.580782	1.702844	
3872.582508	1.702780	
3872.584019	1.702828	
3872.585766	1.702784	
3872.587255	1.702707	
3872.589030	1.702772	
3872.590516	1.702792	
3872.592291	1.702703	
3872.593785	1.702744	
3872.595565	1.702659	
3872.597065	1.702587	
3872.598560	1.702667	
3872.600146	1.702611	
3872.601693	1.702792	
3872.603288	1.702687	
3872.604784	1.702800	
3872.606460	1.702595	
3872.607948	1.702731	
3872.609584	1.701882	
3872.611100	1.702651	
3872.612729	1.702647	
3872.614208	1.702663	
3872.615861	1.702651	
3872.617348	1.702623	
3872.619050	1.702659	
3872.620532	1.702659	
3872.622241	1.701898	
3872.623726	1.702514	
3872.625429	1.702458	
3872.626940	1.702651	
3872.628597	1.702764	
3872.630124	1.702598	
3872.631774	1.702719	
3872.633321	1.702643	
3872.634944	1.702478	
3872.636514	1.702615	
3872.638199	1.702619	
3872.639797	1.702280	
3872.641461	1.702446	
3872.643067	1.702445	
3872.644712	1.702325	
3872.646321	1.702401	
3872.647962	1.702812	
3872.649567	1.702329	
3872.651201	1.702848	
3872.652861	1.701809	
3872.654452	1.702784	
3872.656129	1.701023	
3872.657714	1.702647	
3872.659400	1.701668	
3872.660984	1.702627	
3872.662672	1.700540	
3872.664236	1.702538	
3872.665928	1.701813	
3872.667478	1.702526	
3872.669202	1.671572	
3872.670751	1.682985	
3872.672462	1.647423	
3872.673980	1.589137	
3872.675720	1.594789	
3872.677205	1.570192	
3872.679007	1.508289	
3872.680497	1.490475	
3872.682282	1.482515	
3872.683765	1.424882	
3872.685540	1.395741	
3872.687028	1.360647	
3872.688792	1.362923	
3872.690285	1.273933	
3872.692048	1.276837	
3872.693557	1.215800	
3872.695314	1.262976	
3872.696836	1.158252	
3872.698562	1.182107	
3872.700094	1.072473	
3872.701812	1.090898	
3872.703356	1.023420	
3872.705060	1.076227	
3872.706616	0.902054	
3872.708316	1.020580	
3872.709865	0.837174	
3872.711532	0.943752	
3872.713100	0.793749	
3872.714748	0.895665	
3872.716351	0.792528	
3872.717987	0.866360	
3872.719602	0.689963	
3872.721209	0.818958	
3872.722857	0.615782	
3872.724472	0.747492	
3872.726135	0.586705	
3872.727746	0.690979	
3872.729430	0.596559	
3872.730996	0.608688	
3872.732685	0.552461	
3872.734244	0.595584	
