time (s)	magX	magY	magZ
4143.895897	-310.016357	-246.513153	799.964355
4143.899246	-304.639404	-242.421967	813.056091
4143.902584	-298.502625	-238.506134	825.095825
4143.905875	-292.015198	-234.531860	836.726440
4143.909206	-285.469299	-230.440674	849.116882
4143.912531	-279.157227	-226.057281	860.221497
4143.915465	-270.098206	-222.842773	872.144348
4143.918782	-262.500305	-217.991821	882.781433
4143.922118	-254.201065	-214.426651	894.528870
4143.925443	-245.025131	-210.277039	905.692017
4143.928779	-235.907639	-205.659851	916.971924
4143.932110	-226.264160	-202.094681	927.784363
4143.935447	-216.796021	-197.711288	937.778503
4143.938775	-206.217407	-193.152527	948.006470
4143.942112	-194.762131	-188.827591	957.766724
4143.945454	-184.125061	-184.035065	966.767334
4143.948774	-172.435989	-179.067215	975.651123
4143.952135	-160.337814	-174.391586	984.125610
4143.955455	-147.830505	-169.014603	991.840454
4143.958779	-135.147873	-163.696091	998.737000
4143.962107	-123.692581	-157.559326	1005.575134
4143.965449	-110.717712	-151.364120	1011.711792
4143.968771	-97.976624	-144.350662	1017.322571
4143.972112	-84.241959	-137.278778	1022.699585
4143.975442	-71.383987	-130.557571	1027.784424
4143.978775	-58.584457	-122.842789	1032.869141
4143.982106	-45.025131	-115.069550	1035.791382
4143.985442	-31.524258	-106.536530	1038.479858
4143.988789	-18.666279	-98.120407	1040.934570
4143.992108	-5.516071	-89.470490	1044.090576
4143.995441	7.867914	-79.768562	1044.733521
4143.998772	21.076563	-70.066628	1044.733521
4144.002108	34.752777	-59.897141	1043.155396
4144.005436	47.844536	-50.019867	1041.986572
4144.008767	60.994740	-40.493279	1041.635986
4144.013030	86.360016	-19.686733	1035.791382
4144.016351	98.984222	-9.049679	1031.407959
4144.019647	111.725311	0.710695	1028.719482
4144.022954	124.291061	10.880184	1022.465820
4144.026338	136.038574	20.874340	1016.913513
4144.029635	148.428986	30.926943	1011.361145
4144.032555	160.351837	40.687317	1003.997070
4144.035880	172.450027	50.213909	997.451233
4144.039217	184.431335	58.980713	990.788391
4144.042546	195.886612	67.279953	982.547607
4144.045869	207.166565	75.286964	973.196350
4144.048763	217.978958	82.884857	965.364685
4144.052100	229.784927	90.599648	956.013428
4144.055432	239.837524	97.613091	947.597351
4144.058765	250.007004	104.334312	937.778503
4144.062101	260.760956	110.763298	927.550537
4144.065431	270.346008	116.023376	917.088806
4144.068762	280.106384	121.926361	906.042725
4144.072096	290.042114	127.595558	894.762756
4144.075445	299.685547	132.212738	883.248901
4144.078770	307.575684	137.005249	872.378113
4144.082097	316.693176	142.031555	860.338379
4144.085427	325.927551	145.304504	848.181763
4144.088759	333.700745	149.746338	836.200439
4144.092094	341.883118	154.538864	823.284058
4144.095429	348.370544	158.104034	810.776733
4144.098768	355.091736	161.260086	798.035645
4144.102090	361.345398	165.526596	785.937500
4144.105425	366.956177	169.208649	772.904114
4144.108773	372.742249	172.364700	760.338379
4144.112139	377.417847	176.338989	746.895935
4144.115431	381.742859	179.495026	733.511963
4144.118794	386.301575	182.475754	720.829346
4144.122091	389.808289	186.391586	707.912903
4144.125423	393.373474	189.372284	694.353577
4144.128756	396.120422	193.931030	681.378723
4144.132111	398.049072	196.035065	668.170044
4144.135422	399.860901	199.541779	654.552307
4144.138757	401.848022	202.814728	642.395691
4144.142093	403.192261	205.912323	629.187012
4144.145430	403.893616	208.717712	615.803040
4144.149634	404.945618	214.153122	590.963745
4144.152973	405.120972	216.432495	578.631836
4144.156356	405.296326	218.770309	567.468750
4144.159680	404.945618	220.991226	554.318542
4144.162993	404.127380	222.452362	541.109863
4144.166268	404.010498	224.381073	528.894775
4144.169174	402.490967	225.374634	517.497986
4144.172507	402.315613	226.543533	506.217987
4144.175855	401.146729	227.303329	495.054932
4144.179172	399.860901	227.946228	483.774963
4144.182510	398.107544	227.887787	473.196381
4144.185867	398.282837	227.829346	463.319122
4144.188760	396.412598	227.829346	452.331360
4144.192085	395.769714	227.537109	441.986542
4144.195424	394.659241	227.011093	433.044403
4144.198826	393.198120	226.075974	422.816467
4144.202085	391.503235	225.666855	413.406769
4144.205453	389.866760	224.322617	403.880157
4144.208756	388.113403	222.919937	394.762695
4144.212081	386.476929	221.751022	385.820557
4144.215413	384.314453	220.699005	376.527771
4144.218772	382.502625	219.354767	368.871399
4144.222083	380.690796	217.484512	359.637054
4144.225412	379.054382	216.666275	350.811798
4144.228753	377.476318	215.263580	343.155457
4144.232082	375.196960	213.218002	335.440674
4144.235409	373.209839	212.399765	327.842804
4144.238744	370.930481	210.061951	320.244904
4144.242081	368.826416	208.893036	313.173004
4144.245416	365.787292	207.899475	305.691986
4144.248748	362.806519	206.438339	299.087677
4144.252077	360.468750	205.035660	291.840454
4144.255416	358.189392	203.866745	286.580353
4144.258741	356.026917	202.697845	279.742249
4144.262082	353.046204	202.113373	273.313263
4144.265414	350.299255	201.645813	267.176514
4144.268748	347.376953	199.950897	261.098175
4144.272082	344.220947	199.366455	255.078308
4144.275414	342.116882	198.080643	248.824677
4144.278742	338.551697	197.437759	243.389252
4144.282075	335.512573	196.385742	237.836945
4144.285407	332.824097	196.035065	233.278198
4144.288744	329.434265	194.866165	228.193451
4144.292113	326.745789	194.340149	223.108704
4144.295414	323.414368	193.580353	218.666870
4144.300042	317.394470	191.885452	208.848053
4144.302955	315.056702	190.716537	204.347748
4144.306300	312.134460	189.664520	200.256561
4144.309707	309.738159	189.021622	196.632965
4144.312994	306.757446	188.086502	191.898895
4144.316281	304.419617	186.683807	187.924606
4144.319587	302.315613	185.514908	184.476318
4144.322497	299.919373	184.053772	180.794281
4144.325833	297.113953	183.469315	177.229095
4144.329164	295.068359	181.482178	173.956161
4144.332499	293.022827	180.196365	171.618347
4144.335874	290.860352	178.793686	167.410278
4144.338741	289.048523	177.800125	164.020447
4144.342071	287.704285	176.163635	161.156631
4144.345401	285.191101	174.644073	157.649902
4144.348735	283.145508	173.358261	154.844543
4144.352088	281.567505	171.546463	152.389832
4144.355400	279.989502	170.143768	149.292236
4144.358742	278.002319	168.390427	147.188202
4144.362071	276.424316	167.046173	144.908813
4144.365402	274.554077	165.351257	142.103455
4144.368737	272.800720	164.591476	139.181183
4144.372066	271.164246	162.721222	136.726471
4144.375400	269.293976	162.019882	134.914673
4144.378763	267.365295	160.734070	132.869080
4144.382066	266.137939	159.565170	130.765045
4144.385398	264.618347	159.039154	129.011688
4144.388727	263.624786	157.694916	125.738747
4144.392068	261.988312	157.227356	124.336060
4144.395397	260.176514	156.058441	122.232025
4144.398730	258.598450	155.357101	120.537109
4144.402063	257.371124	154.538864	118.257736
4144.405396	255.968430	153.720642	117.147278
4144.408728	254.331970	152.902390	115.569260
4144.412069	252.578613	152.434830	114.634125
4144.415391	251.701935	152.201050	113.172989
4144.418731	250.357681	151.207489	111.828751
4144.422121	248.779663	150.681473	110.016945
4144.425408	247.493866	150.447693	109.023376
4144.428727	246.091171	149.746338	107.503799
4144.432060	244.863815	149.746338	106.101105
4144.436699	242.175339	149.395660	104.756866
4144.439582	240.421967	148.811218	103.471069
4144.442957	240.071304	148.109879	101.659256
4144.446304	238.843948	147.583862	100.957916
4144.449655	237.558151	147.642319	100.256577
4144.452983	237.149033	146.882523	99.204559
4144.455844	235.570999	147.116302	98.152542
4144.459160	236.155472	146.239624	97.275856
4144.462483	234.635880	145.713623	96.399178
4144.465850	233.992981	145.070724	95.931618
4144.469161	233.700760	144.720047	95.113380
4144.472483	233.174759	144.310928	94.704262
4144.475390	232.414963	143.434250	94.002922
4144.478735	231.888962	143.258911	93.360023
4144.482060	231.479843	142.265350	93.009354
4144.485390	231.479843	141.622437	92.717117
4144.488726	231.012268	141.447113	91.898888
4144.492056	230.603149	140.862656	91.197540
4144.495387	230.252487	139.869080	90.905319
4144.498720	230.252487	138.933960	90.028633
4144.502055	230.135590	138.700180	90.496201
4144.505392	229.668030	138.232605	90.028633
4144.508738	229.960251	137.531281	90.262421
4144.512079	230.194046	137.414368	90.087082
4144.515414	230.194046	137.005249	88.450607
4144.518717	230.135590	136.713028	88.918175
4144.522065	229.784927	136.596146	89.210403
4144.525388	229.609589	135.719452	89.151955
4144.528714	229.317352	136.420807	89.385735
4144.532057	229.960251	135.894806	90.203972
4144.535387	229.317352	135.836349	89.444183
4144.538720	229.492691	135.953247	89.502625
4144.542051	229.317352	136.070129	89.327293
4144.545383	229.375793	135.719452	89.970192
4144.548721	229.258926	136.245468	89.677963
4144.552075	229.083588	136.011688	90.320862
4144.555383	229.317352	136.245468	90.554642
4144.558722	229.726486	136.654572	90.788422
4144.562047	230.077148	136.596146	90.320862
4144.565388	230.310913	137.589706	91.665100
4144.568713	230.310913	137.297485	91.665100
4144.572975	230.603149	138.115723	92.950905
4144.576314	231.596741	138.641724	93.593803
4144.579609	232.122726	138.933960	93.243134
4144.582898	231.830505	139.109283	94.178253
4144.586229	232.707199	139.927521	94.821152
4144.589587	232.999420	140.161301	95.697830
4144.592920	233.876083	139.927521	95.756279
4144.595868	233.817657	140.278198	97.334305
4144.599164	234.577438	140.453522	97.684975
4144.602495	235.980133	140.102875	99.146111
4144.605821	236.798355	140.278198	99.905899
4144.609153	237.441254	141.154877	100.665688
4144.612040	238.551712	140.979553	101.951485
4144.615374	239.603729	141.447113	102.126823
4144.618715	240.714188	141.271774	102.769722
4144.622041	241.298660	141.739334	104.230850
4144.625377	243.227341	141.856216	105.282875
4144.628705	243.811798	141.505554	105.925774
4144.632040	245.682053	141.680878	107.153122
4144.635374	246.792511	141.037994	108.088249
4144.638723	248.487427	141.563995	109.374046
4144.642041	249.188782	141.680878	110.542953
4144.645372	250.299240	141.914673	111.945641
4144.648707	251.760361	141.973114	113.056107
4144.652042	253.221512	142.382233	114.634125
4144.655372	254.741104	142.440674	115.861481
4144.658707	255.734665	143.317352	117.556396
4144.662039	257.546478	142.849792	118.842194
4144.665370	258.832275	143.726471	120.770889
4144.668756	260.351868	144.310928	122.582703
4144.672041	262.046753	144.661591	124.628281
4144.675368	263.040344	145.713623	125.914078
4144.678704	264.793701	145.596710	128.427231
4144.682063	265.904144	146.590302	130.063705
4144.685371	267.189941	147.174744	132.752182
4144.688700	269.001770	148.168320	134.154877
4144.692030	270.930481	149.103439	136.843369
4144.695372	272.333130	150.038574	139.239624
4144.698699	274.612488	150.915253	141.343658
4144.702030	276.015198	152.551727	144.032135
4144.705364	277.651672	153.194611	146.311508
4144.708700	279.346588	153.720642	148.883102
4144.713380	283.028625	155.766205	155.253647
4144.716331	284.781982	156.935120	157.299240
4144.719658	286.827576	157.519592	160.513733
4144.722947	289.106934	158.513153	164.488022
4144.726246	291.210999	158.746933	167.468719
4144.729545	292.964355	159.331390	170.683228
4144.732452	295.652832	160.266510	173.488602
4144.735785	297.815308	161.318527	176.527756
4144.739129	300.270020	162.078308	179.216248
4144.742449	303.075378	162.195206	182.781418
4144.745805	305.296326	162.662766	186.521912
4144.749147	307.575684	163.071884	189.911743
4144.752028	310.556396	163.422562	194.587372
4144.755365	312.660461	163.773224	198.853882
4144.758704	314.413818	163.597900	201.893036
4144.762032	318.154297	164.416122	206.101105
4144.765359	320.784363	164.533020	209.783173
4144.768722	323.765015	165.059036	214.283447
4144.772028	326.395081	164.942139	219.309753
4144.775365	329.609558	164.825256	224.043823
4144.778697	332.648743	164.942139	228.251892
4144.782039	335.103455	165.351257	233.161316
4144.785355	337.967285	165.760376	238.304504
4144.788692	341.590881	165.760376	243.447693
4144.792031	344.045593	166.637054	248.357086
4144.795353	346.383423	166.286377	253.792511
4144.798694	349.656372	166.520157	258.877258
4144.802031	352.169495	166.870834	264.604919
4144.805358	355.559326	166.987717	271.326111
4144.808688	358.072449	167.338394	276.410858
4144.812038	360.702515	167.981293	283.015198
4144.815359	363.624817	168.507309	289.268829
4144.818692	366.079468	168.857986	296.106934
4144.822019	368.709534	169.676208	303.003510
4144.825401	372.099365	170.319107	309.666290
4144.828684	374.554077	170.611343	317.088837
4144.832020	377.534790	171.195801	324.102264
4144.835354	379.521912	171.780243	331.641724
4144.838685	381.509094	172.130920	339.181152
4144.842017	384.606689	172.598480	347.071289
4144.845350	387.412048	172.656921	354.786072
4144.849983	391.737000	173.650497	372.319672
4144.852899	394.016357	173.592041	380.911163
4144.856262	396.821716	173.533615	390.320862
4144.859642	398.925781	173.066040	398.561646
4144.862938	401.438904	172.832260	407.386902
4144.866226	403.367615	172.715363	416.971954
4144.869130	405.062561	171.546463	425.855621
4144.872435	408.043274	170.903564	436.375793
4144.875779	410.030396	169.909988	445.551697
4144.879109	411.433105	169.033310	456.071869
4144.882442	413.244873	167.163071	465.540039
4144.885350	415.641113	165.175919	475.884827
4144.888687	416.751587	163.773224	485.586761
4144.892011	418.329651	161.026306	495.990051
4144.895345	420.375244	158.337799	506.568634
4144.898680	421.661011	156.116882	515.861511
4144.902016	422.946838	153.486847	527.842773
4144.905346	424.583313	150.564575	538.538330
4144.908698	425.810608	147.408539	550.461121
4144.912011	426.336609	144.194031	562.325562
4144.915351	426.570435	141.271774	573.780823
4144.918681	427.447144	137.881927	585.353027
4144.922013	427.914673	134.725891	596.808289
4144.925351	427.330200	131.219177	608.848022
4144.928680	427.096436	127.186440	620.653992
4144.932011	425.985962	123.270607	633.044434
4144.935342	425.226196	120.172997	644.558105
4144.938678	423.063721	116.374046	657.357666
4144.942026	421.661011	112.049095	669.455872
4144.945338	419.615417	108.074814	682.372314
4144.948677	417.043823	104.684982	694.762695
4144.952010	414.530701	100.593803	707.270020
4144.955345	411.140869	96.268845	719.368164
4144.958677	408.218567	91.768555	733.161255
4144.962006	404.478088	87.385155	745.434814
4144.965340	399.860901	82.884857	758.643433
4144.968671	394.951477	78.092346	770.916992
4144.972009	390.451172	73.708939	783.365845
4144.975343	384.840454	68.215073	795.756287
4144.978720	378.820557	63.188778	808.322021
4144.983280	366.430176	52.201050	831.232605
4144.986218	359.884277	46.940968	843.915222
4144.989529	352.169495	40.804207	856.656311
4144.992883	345.389832	34.433662	866.767395
4144.996217	337.382812	26.485096	877.813538
4144.999603	330.018738	20.114552	889.151978
4145.002475	321.661011	13.334890	899.496765
4145.005787	312.952637	6.146111	909.724731
4145.009103	304.068970	-1.393341	919.251282
4145.012427	295.711304	-9.517242	928.135010
4145.015754	285.249573	-17.758038	937.486267
4145.019102	276.599670	-25.881943	945.668640
4145.022036	266.839264	-34.999413	953.617187
4145.025336	257.897156	-43.590881	960.513733
4145.028677	247.376968	-52.007019	968.403809
4145.031997	236.739929	-61.358269	974.189941
4145.035334	227.096436	-70.534195	980.794250
4145.038667	216.400940	-79.710114	986.054321
4145.042001	205.237869	-89.996490	990.963745
4145.045329	193.724136	-99.581543	996.165405
4145.048670	182.268845	-108.699005	999.730530
4145.051994	170.462891	-117.933380	1003.237244
4145.055335	159.416718	-127.752197	1006.042725
4145.058674	147.493866	-137.337234	1007.971313
4145.062000	134.518997	-146.688477	1009.958496
4145.065363	121.836357	-155.981293	1011.945679
4145.068669	108.978378	-164.163651	1012.997681
4145.071999	96.178841	-172.930435	1013.757446
4145.075331	82.677963	-181.346588	1013.465210
4145.078661	69.878433	-189.528931	1011.361145
4145.081997	56.728226	-197.828186	1010.601379
4145.085332	43.461136	-205.133850	1008.438904
4145.088666	30.077148	-212.264160	1007.036255
4145.091998	16.225599	-219.160736	1004.406189
4145.095333	1.731152	-226.466400	1000.256592
4145.098662	-11.419052	-233.304504	996.106934
4145.101992	-24.510811	-239.616608	991.431335
4145.105326	-38.654587	-246.279358	985.762146
4145.108678	-51.746346	-251.890106	980.735779
4145.111997	-65.071892	-257.676208	973.546997
4145.115325	-77.520752	-263.520752	967.118103
4145.119598	-102.652252	-274.216248	952.623596
4145.122919	-115.042664	-279.242554	944.616638
4145.126175	-126.731735	-284.151978	937.310913
4145.129506	-138.713043	-289.002930	927.258301
4145.132851	-149.408524	-293.444763	918.257751
4145.136192	-160.104034	-297.243713	908.731079
4145.139124	-170.741089	-302.679138	897.977173
4145.142433	-180.209229	-306.185852	887.983032
4145.145772	-190.144943	-309.984802	878.164246
4145.149106	-199.379303	-313.842194	867.468689
4145.152485	-207.327896	-318.108704	855.779663
4145.155747	-215.451782	-321.264740	844.675049
4145.158655	-223.108124	-324.420807	833.161255
4145.161988	-229.712463	-327.985962	822.407349
4145.165322	-237.485672	-331.317352	809.841614
4145.168659	-244.382248	-334.414978	797.743408
4145.171986	-251.278793	-336.928101	786.229675
4145.175326	-257.766235	-339.675049	774.073059
4145.178652	-262.792542	-342.597290	761.916443
4145.181984	-268.111023	-344.000000	748.415527
4145.185318	-274.072449	-345.870239	736.901794
4145.188652	-279.507874	-347.389832	724.862061
4145.191981	-283.774414	-348.967834	712.880798
4145.195318	-288.333130	-350.487427	699.847412
4145.198651	-292.833435	-350.896545	686.638794
4145.201983	-296.515503	-352.182343	674.774414
4145.205314	-300.372864	-352.007019	661.916443
4145.208648	-303.879578	-352.182343	649.642883
4145.211985	-307.620117	-351.656342	638.304504
4145.215324	-310.834595	-352.007019	626.089417
4145.218647	-313.932190	-351.305664	613.465210
4145.221980	-317.380493	-350.428986	601.133240
4145.225350	-320.302734	-349.318542	589.619507
4145.228645	-322.757446	-347.974274	578.105774
4145.231977	-325.153687	-346.688507	565.890747
4145.235315	-327.549988	-344.818237	554.026306
4145.238679	-330.004639	-343.590881	542.980164
4145.241984	-331.348938	-341.486847	531.466370
4145.245321	-332.810059	-339.207489	521.647583
4145.248642	-334.914062	-337.687897	510.133820
4145.253323	-337.719482	-333.362946	489.677979
4145.256197	-338.713013	-330.557556	479.157806
4145.259579	-339.414368	-328.219757	469.046722
4145.262899	-340.174194	-325.823517	458.409698
4145.266166	-340.115723	-323.544128	449.526001
4145.269495	-340.232605	-320.972534	440.233185
4145.272817	-340.291077	-319.102264	430.940369
4145.275727	-340.758606	-316.589111	422.874939
4145.279068	-340.115723	-314.660431	413.523651
4145.282416	-340.174194	-312.848633	404.289307
4145.285755	-339.472839	-310.335480	396.808289
4145.289091	-338.537720	-308.523651	389.268829
4145.291975	-337.602539	-306.361176	380.911163
4145.295321	-337.251892	-304.958496	373.547028
4145.298647	-335.264771	-303.205139	365.481598
4145.301980	-333.803650	-300.633545	358.292786
4145.305310	-333.452942	-299.581543	350.285797
4145.308638	-330.998230	-297.126831	344.090576
4145.312004	-329.887817	-295.490356	336.258911
4145.315308	-328.601990	-293.620087	329.596130
4145.318637	-327.374634	-291.925201	322.465820
4145.321980	-325.504395	-290.113373	316.153687
4145.325331	-322.523682	-288.418457	309.783142
4145.328639	-321.763855	-286.489777	304.289307
4145.331976	-320.068970	-283.742828	297.918762
4145.335301	-318.374084	-282.924622	291.665100
4145.338635	-316.971375	-280.820557	286.288116
4145.341966	-314.984253	-278.541229	281.086487
4145.345302	-313.932190	-276.612518	275.534180
4145.348632	-312.061951	-274.859161	269.631195
4145.351970	-310.191711	-272.053772	264.371124
4145.355310	-308.905884	-270.183533	259.286377
4145.358638	-307.561646	-267.962585	253.734070
