time (s)	magX	magY	magZ
3837.246118	362.397461	189.664520	198.561646
3837.249447	365.904114	190.132080	202.886597
3837.252783	368.592651	190.307419	206.744019
3837.256129	372.040894	191.125656	211.361176
3837.259448	375.664551	190.950317	216.387482
3837.262782	379.054382	191.359436	220.420227
3837.266113	381.509094	192.060776	225.446503
3837.269497	385.249573	192.002335	230.355927
3837.272778	388.931641	192.353012	235.557556
3837.276122	392.146118	192.294571	240.233185
3837.279453	396.003540	192.762131	246.545288
3837.282779	399.860901	192.353012	251.980713
3837.286112	402.374084	192.645233	258.059021
3837.289441	406.348328	193.054352	263.436005
3837.292776	408.569275	193.288132	269.222076
3837.296113	412.718872	193.697250	275.767975
3837.299449	415.816467	194.340149	281.495605
3837.302774	419.147888	193.931030	288.158386
3837.306106	423.239014	194.340149	295.580933
3837.310339	429.492737	194.398590	309.374054
3837.313723	433.992981	194.924606	316.621277
3837.317064	437.324402	194.515488	324.686737
3837.320375	440.538879	194.632385	330.940369
3837.323633	444.104065	195.041489	339.882507
3837.326955	447.786072	194.515488	347.538849
3837.329866	451.292786	194.515488	357.006989
3837.333199	455.091736	194.047913	364.897125
3837.336527	457.838684	193.931030	373.488586
3837.339863	461.520752	192.937454	383.248962
3837.343201	465.378174	191.826996	392.015778
3837.346545	468.358826	190.950317	401.191681
3837.349441	471.105774	190.015198	411.185822
3837.352775	474.554077	188.612518	420.303314
3837.356122	477.768555	187.560486	429.654572
3837.359435	481.216797	186.099350	440.291656
3837.362776	484.139099	184.053772	449.701324
3837.366107	487.002930	182.709534	459.987701
3837.369443	490.626526	180.897720	469.981873
3837.372767	493.724182	178.443024	480.268250
3837.376104	496.295715	176.806549	491.022186
3837.379435	498.692017	173.416718	501.425476
3837.382764	500.503784	171.020447	512.880798
3837.386133	504.770325	167.747513	522.582703
3837.389437	507.400391	164.766800	534.330200
3837.392770	509.387512	161.552307	545.727051
3837.396102	511.374634	159.097595	557.533020
3837.399438	513.303345	154.889542	568.871460
3837.402764	515.173584	151.791931	580.092957
3837.406104	516.400940	147.525421	589.911743
3837.409435	517.452942	143.784912	602.652832
3837.412770	518.797180	139.693741	614.458801
3837.416098	520.024536	135.193451	625.972534
3837.419434	520.725891	130.810059	638.187622
3837.422783	520.258362	127.069550	650.578003
3837.426101	520.842773	122.510811	662.150208
3837.429467	521.018127	117.659843	674.891296
3837.432766	521.544128	113.159561	687.866150
3837.436098	520.375183	108.074814	699.672119
3837.439431	520.199890	102.639389	712.413208
3837.442776	519.206360	97.788429	724.686768
3837.447392	516.284058	86.157806	751.045593
3837.450307	514.179993	80.371712	764.020447
3837.453638	512.134399	74.001167	776.527771
3837.457018	509.679687	68.215073	789.151917
3837.460392	506.874329	61.727642	801.133240
3837.463246	503.133850	55.181763	814.400391
3837.466539	499.218018	48.577438	827.609009
3837.469849	495.535950	41.914669	839.765625
3837.473217	491.210999	34.024548	852.857361
3837.476515	486.535339	26.309759	865.364685
3837.479846	482.385742	18.068964	877.345947
3837.482760	477.300964	9.945059	889.093506
3837.486092	471.514893	1.879602	900.724121
3837.489423	466.663940	-6.127411	911.828735
3837.492756	460.351868	-14.368206	923.693115
3837.496095	454.857971	-23.368790	935.031555
3837.499419	448.312073	-32.310932	945.493225
3837.502784	441.766235	-41.779083	955.838135
3837.506091	434.460571	-50.721222	965.423157
3837.509426	426.921082	-60.364700	975.358887
3837.512778	419.790771	-70.183525	984.593201
3837.516113	412.718872	-80.119225	992.717102
3837.519423	403.893616	-90.288719	1000.256592
3837.522753	395.886597	-99.873749	1007.679077
3837.526090	387.704285	-109.400360	1015.569214
3837.529428	378.645203	-119.452957	1022.991760
3837.532752	370.053772	-129.213333	1029.654663
3837.536090	360.994751	-139.558151	1036.668091
3837.539420	351.643494	-149.552307	1042.220337
3837.542757	342.116882	-159.488022	1047.597412
3837.546113	333.057861	-169.014603	1052.448364
3837.549421	322.946838	-179.008774	1056.890137
3837.552756	312.426636	-188.652267	1060.513794
3837.556081	301.848022	-198.997070	1063.903564
3837.559421	291.678528	-207.880768	1067.118164
3837.562751	281.567505	-217.173584	1069.923462
3837.566085	270.462891	-226.758636	1073.196411
3837.569417	260.001160	-236.226746	1074.891357
3837.572749	248.721222	-245.110474	1075.884888
3837.576078	237.265915	-253.935699	1076.703125
3837.580384	214.822922	-272.287537	1077.813599
3837.583598	203.075394	-280.879028	1078.047363
3837.586926	191.094101	-289.528931	1076.878418
3837.590293	179.405029	-297.477478	1076.235596
3837.593619	167.774399	-305.718292	1075.125122
3837.596960	156.143768	-313.900635	1073.313232
3837.599865	144.220917	-321.498535	1070.800171
3837.603204	132.414963	-329.914673	1067.936279
3837.606558	120.784340	-337.512573	1064.020508
3837.609849	108.627701	-344.876678	1060.221558
3837.613176	96.763298	-351.948578	1056.071899
3837.616501	85.658676	-359.604919	1051.922241
3837.619412	73.852722	-366.326141	1045.785522
3837.622743	62.923435	-372.287567	1039.941040
3837.626081	51.935711	-380.060791	1035.323730
3837.629414	40.538864	-385.671539	1027.083008
3837.632763	30.077148	-392.217407	1020.186462
3837.636075	19.089420	-398.354156	1011.594971
3837.639405	8.335476	-404.198700	1004.464661
3837.642743	-1.249561	-409.634125	997.275879
3837.646077	-10.542374	-415.069550	988.041504
3837.649408	-19.952076	-419.745178	979.216187
3837.652746	-29.420223	-424.713043	969.864990
3837.656076	-38.946815	-429.388672	961.215027
3837.659404	-48.005844	-433.479858	952.272888
3837.662743	-55.779083	-437.804810	941.869690
3837.666121	-64.253647	-442.012848	933.336670
3837.669410	-72.026886	-446.104004	923.576294
3837.672740	-79.683228	-450.253632	913.523682
3837.676103	-87.047333	-453.643463	902.652832
3837.679403	-93.943893	-455.922852	892.366455
3837.682744	-101.658676	-459.020447	882.255371
3837.686074	-108.496780	-462.001190	872.670410
3837.689412	-115.802460	-464.105194	861.390442
3837.692735	-121.296326	-466.443024	852.272888
3837.696070	-127.666870	-467.553467	841.343689
3837.699408	-133.511398	-470.125061	830.472839
3837.702734	-139.940384	-471.001770	820.653992
3837.706071	-146.603149	-472.462891	810.309143
3837.709403	-151.863235	-473.105774	799.672119
3837.712735	-157.590881	-474.508484	790.203979
3837.716067	-162.967865	-474.742279	779.742249
3837.719418	-168.461716	-476.028076	770.274109
3837.723667	-178.455872	-476.670929	750.928650
3837.726990	-183.306839	-475.969604	740.934509
3837.730249	-187.339569	-476.554077	730.765015
3837.733594	-191.839859	-476.787872	720.361755
3837.736915	-196.924606	-476.846283	710.601379
3837.740274	-200.723557	-475.852722	701.600830
3837.743160	-204.756287	-474.800690	692.249573
3837.746507	-208.204559	-474.625366	682.430725
3837.749848	-212.646408	-473.514893	672.670349
3837.753190	-215.159561	-473.398041	663.202209
3837.756542	-218.900055	-472.053772	653.500305
3837.759821	-221.997665	-470.884857	643.681458
3837.762749	-224.919937	-470.417328	634.856201
3837.766066	-228.075974	-469.248413	626.264709
3837.769400	-229.946228	-468.254822	615.861511
3837.772729	-232.400955	-466.676819	606.802429
3837.776068	-235.030991	-465.507904	597.509644
3837.779396	-237.251907	-464.222107	589.385742
3837.782732	-238.713028	-463.053192	581.261841
3837.786062	-239.998825	-461.884277	572.319702
3837.789400	-241.985977	-460.189362	565.247803
3837.792730	-243.096451	-458.319092	556.305664
3837.796064	-245.434250	-457.559296	547.597290
3837.799414	-245.668015	-456.098175	539.298096
3837.802724	-247.187607	-453.701935	531.641724
3837.806063	-248.298080	-452.533020	523.810059
3837.809393	-248.824081	-450.604309	516.855042
3837.812727	-249.700760	-448.441833	510.192261
3837.816056	-250.168320	-447.214508	502.068359
3837.819422	-251.044998	-444.876678	495.522461
3837.822727	-251.454117	-442.831085	489.093506
3837.826057	-252.155472	-441.662170	482.080048
3837.829391	-252.623032	-439.558136	475.417297
3837.832721	-252.856796	-438.272339	470.449432
3837.836057	-253.733475	-436.577423	464.488007
3837.839391	-254.201065	-434.414978	457.532990
3837.842721	-254.201065	-432.778503	451.805389
3837.846055	-254.025711	-431.434265	446.662201
3837.849398	-255.603745	-429.271759	441.402100
3837.852719	-255.077744	-427.226166	435.849792
3837.856060	-256.071289	-425.648163	429.070129
3837.859381	-256.071289	-424.187042	423.985382
3837.864072	-257.064880	-420.154297	414.108093
3837.867018	-258.116882	-418.284058	410.367615
3837.870317	-258.175354	-417.232056	404.815277
3837.873654	-258.058472	-415.420197	400.373444
3837.876901	-257.649353	-413.783752	396.223816
3837.880234	-258.584473	-411.153717	391.665100
3837.883566	-258.818237	-409.984802	387.749268
3837.886523	-259.636475	-407.880798	383.424316
3837.889813	-259.402649	-406.185883	378.748688
3837.893174	-260.104004	-405.426086	374.365295
3837.896503	-259.694885	-404.023376	372.027466
3837.899836	-259.987122	-401.977783	367.819397
3837.903149	-260.104004	-400.107544	363.260651
3837.906055	-260.630005	-398.997070	360.805939
3837.909388	-260.104004	-397.711273	356.831665
3837.912717	-259.636475	-395.607239	353.967834
3837.916049	-259.811829	-394.789001	350.987122
3837.919380	-259.753357	-393.327881	347.597321
3837.922717	-259.811829	-392.217407	344.558136
3837.926047	-258.642883	-390.873169	341.343628
3837.929379	-258.876709	-389.879608	339.356506
3837.932713	-258.233765	-388.652252	336.142029
3837.936060	-258.175354	-388.126251	334.271759
3837.939377	-257.590881	-386.606659	332.167725
3837.942716	-258.116882	-386.022186	329.420807
3837.946051	-256.947998	-384.444214	326.966095
3837.949378	-256.772644	-384.093536	325.797180
3837.952708	-256.655762	-382.983063	323.225586
3837.956042	-256.538879	-382.866150	320.478668
3837.959379	-255.603745	-381.814148	318.374634
3837.962717	-255.720627	-380.469910	316.796600
3837.966079	-255.136185	-380.645233	315.335480
3837.969379	-254.843948	-379.768585	313.815887
3837.972746	-254.551712	-378.891846	312.471649
3837.976040	-254.434830	-377.781403	311.536530
3837.979390	-253.675064	-377.489197	310.426086
3837.982715	-254.493271	-376.612518	309.666290
3837.986044	-254.142624	-376.729401	308.029816
3837.989371	-254.084152	-376.086487	307.620667
3837.992710	-254.376389	-375.969604	306.042664
3837.996044	-253.908829	-375.560486	305.575104
3837.999379	-254.727066	-375.034485	304.172394
3838.002714	-254.434830	-374.625366	303.412598
3838.006042	-254.317947	-374.040894	302.828186
3838.010243	-255.136185	-373.573364	302.243713
3838.013657	-254.902390	-373.514893	301.893036
3838.017008	-255.194626	-373.514893	300.665680
3838.020322	-255.954422	-372.872040	301.659271
3838.023588	-256.363525	-372.287567	300.315033
3838.026897	-256.246643	-372.462891	301.776154
3838.029797	-256.480408	-373.047363	301.600830
3838.033126	-257.532410	-372.813568	301.893036
3838.036470	-257.649353	-372.462891	301.834595
3838.039788	-257.941528	-372.813568	302.126831
3838.043125	-258.350708	-373.281097	303.178833
3838.046491	-258.642883	-373.573364	303.412598
3838.049818	-259.052002	-373.456451	304.113953
3838.052711	-258.993591	-373.573364	304.464630
3838.056050	-259.753357	-374.391571	305.458221
3838.059404	-259.636475	-374.274689	306.744019
3838.062701	-259.578064	-373.865570	307.854462
3838.066045	-260.571594	-374.683807	308.497375
3838.069365	-260.513184	-376.028076	308.263580
3838.072705	-260.396240	-376.378723	310.075378
3838.076032	-260.630005	-376.729401	310.893646
3838.079366	-260.630005	-377.080078	312.471649
3838.082697	-260.805359	-378.774994	313.289886
3838.086031	-260.980713	-379.125641	314.984802
3838.089362	-260.922241	-379.651642	316.270599
3838.092697	-260.571594	-380.645233	318.199310
3838.096035	-260.863831	-381.463501	318.959076
3838.099371	-260.922241	-382.398621	321.180023
3838.102717	-261.039185	-383.392151	322.641144
3838.106026	-261.857361	-383.976624	325.621857
3838.109362	-262.032715	-384.970184	326.615448
3838.112694	-262.266541	-385.496185	329.654572
3838.116031	-262.383423	-387.717102	331.349487
3838.119359	-263.026306	-388.769165	333.511963
3838.122720	-263.902954	-389.704285	335.732880
3838.126032	-263.844543	-390.580963	338.187592
3838.129366	-263.961426	-391.457611	341.343628
3838.132695	-264.370544	-393.269440	344.265900
3838.136029	-265.130310	-394.146118	347.012848
3838.139362	-265.773193	-395.139709	349.058441
3838.142698	-265.656372	-396.893036	353.500275
3838.146061	-266.591492	-397.945068	355.487427
3838.149358	-267.059021	-399.406189	359.929260
3838.152694	-267.526611	-400.282867	362.909973
3838.157379	-269.104614	-402.854462	369.105194
3838.160235	-269.513733	-404.374023	374.657501
3838.163617	-270.098206	-406.127411	378.222656
3838.166968	-270.331970	-406.887207	381.729401
3838.170285	-272.143738	-408.757446	385.411438
3838.173536	-272.143738	-409.575714	389.561066
3838.176896	-272.669800	-411.679718	394.470490
3838.180227	-272.962036	-413.374634	398.561646
3838.183117	-273.604919	-414.660400	403.003510
3838.186453	-273.721802	-416.764465	408.322021
3838.189808	-273.955566	-418.050262	413.056091
3838.193137	-274.481567	-420.212769	417.790161
3838.196496	-274.656921	-421.557007	423.517822
3838.199794	-275.007629	-423.251923	428.193451
3838.202689	-274.715393	-424.888367	433.161316
3838.206017	-275.416687	-426.115723	438.596710
3838.209367	-274.656921	-427.985962	443.973694
3838.212685	-274.890686	-430.265350	449.584442
3838.216021	-274.656921	-432.661591	454.084717
3838.219358	-274.247803	-433.830505	460.279938
3838.222692	-274.072449	-435.759216	466.533600
3838.226017	-273.663330	-437.687897	472.202789
3838.229353	-273.488037	-439.149048	479.274689
3838.232683	-273.020447	-441.369965	484.768555
3838.236015	-273.020447	-442.947968	490.729980
3838.239376	-271.793091	-445.870270	497.918762
3838.242683	-271.325562	-448.149658	505.049072
3838.246015	-270.682617	-449.201630	512.354736
3838.249352	-270.390442	-451.831696	518.199280
3838.252689	-269.630615	-453.351257	525.037415
3838.256013	-269.455261	-454.578613	532.810608
3838.259349	-268.520142	-456.273529	540.583862
3838.262679	-266.825256	-458.202240	549.409119
3838.266029	-266.649902	-459.604889	556.305664
3838.269350	-265.656372	-461.650482	564.371155
3838.272680	-263.902954	-462.527191	572.728821
3838.276012	-263.493896	-463.929840	581.028076
3838.279346	-262.324951	-464.864990	590.087036
3838.282699	-261.156067	-465.858551	597.509644
3838.286013	-259.636475	-466.910553	606.510254
3838.289344	-258.876709	-468.021027	615.043213
3838.292674	-257.240234	-469.423737	624.219177
3838.297316	-254.493271	-471.118652	641.869690
3838.300273	-252.213913	-471.936890	651.220947
3838.303624	-250.869675	-471.995300	660.046143
3838.306940	-248.414963	-473.398041	670.274109
3838.310273	-246.603165	-473.339569	679.742249
3838.313524	-243.797775	-474.391571	689.035034
3838.316861	-241.752182	-474.157806	699.263000
3838.319775	-238.946823	-475.034485	708.322021
3838.323102	-236.141434	-474.800690	718.900635
3838.326462	-232.810043	-475.560486	727.959656
3838.329762	-229.829330	-475.092957	737.720032
3838.333123	-226.673294	-475.268280	747.889526
3838.336459	-223.341919	-475.151367	758.175903
3838.339341	-219.192291	-474.742279	768.111633
3838.342673	-214.633560	-474.566895	778.281067
3838.346055	-210.659256	-473.748688	788.216797
3838.349343	-206.684967	-473.748688	798.386292
3838.352676	-202.535370	-472.579773	807.679077
3838.356008	-197.918167	-472.345978	818.023926
3838.359343	-192.248993	-471.118652	827.492126
3838.362674	-186.521332	-469.657532	837.836914
3838.366002	-181.611923	-468.605469	848.824646
3838.369335	-176.234955	-467.144348	857.825256
3838.372675	-170.156631	-465.449432	867.351868
3838.376005	-164.078323	-463.170074	877.404419
3838.379334	-157.707779	-462.059601	887.106323
3838.382666	-151.687912	-459.897156	897.860291
3838.385999	-145.083588	-457.500885	906.568665
3838.389336	-138.420807	-454.695526	917.088806
3838.392671	-131.290466	-451.130341	926.206299
3838.396001	-124.101700	-448.792511	937.895386
3838.399335	-116.912918	-443.824677	946.603699
3838.402666	-109.607239	-441.019318	956.130310
3838.405998	-102.360016	-437.103485	964.604858
3838.409332	-95.054352	-433.246063	974.189941
3838.412666	-86.696671	-429.680878	983.658081
3838.416046	-79.332550	-425.355927	992.600159
3838.419328	-71.442429	-421.030945	1000.490295
3838.422670	-63.786087	-416.296936	1008.964966
3838.426029	-55.253067	-411.679718	1015.978333
3838.429334	-47.421394	-406.887207	1024.803589
3838.432661	-39.881943	-402.328461	1032.343018
3838.436000	-31.465809	-396.191711	1039.414917
3838.440643	-15.159557	-385.203979	1052.623657
3838.443539	-6.451199	-379.826996	1058.760376
3838.446870	2.140268	-373.631775	1064.663330
3838.450253	10.614845	-368.021057	1070.800171
3838.453595	19.089420	-361.650513	1075.592651
3838.456481	30.252483	-355.455292	1080.852783
3838.459753	39.603741	-349.084747	1085.586792
3838.463085	49.247223	-342.421967	1089.970215
3838.466420	58.598480	-335.583862	1094.236694
3838.469787	69.001755	-328.395081	1098.795410
3838.473086	78.528351	-321.440094	1101.717651
3838.476417	89.457626	-314.017548	1104.581421
3838.479326	99.568672	-306.711884	1106.860840
3838.482664	109.621277	-300.165985	1108.555786
3838.485995	120.199883	-292.392761	1110.893677
3838.489326	130.310928	-284.794861	1112.705444
3838.492657	141.240204	-277.313873	1113.056152
3838.495988	151.818817	-269.832855	1113.932861
3838.499344	162.280533	-261.592072	1113.523682
3838.502690	172.099350	-253.818817	1114.166626
3838.505990	183.087082	-246.337799	1112.763916
3838.509330	193.373474	-238.623047	1112.237915
3838.512666	203.367615	-230.674469	1110.542969
3838.515990	213.654007	-222.784332	1109.023437
3838.519320	223.472824	-214.543549	1106.393311
3838.522660	232.940964	-206.185852	1104.815308
3838.525990	242.409119	-198.704849	1102.068359
3838.529319	252.052597	-190.230286	1099.730469
3838.532654	260.936279	-181.931030	1096.048462
3838.535985	269.469299	-172.988907	1092.717163
3838.539321	277.943909	-165.332550	1089.210449
3838.542672	287.002930	-156.974869	1085.353027
3838.545984	295.886597	-149.318527	1080.209839
3838.549320	303.835205	-140.142609	1075.767944
3838.552653	311.783752	-132.427826	1070.215698
3838.555987	319.907654	-123.544128	1065.364746
3838.559319	328.265320	-115.303329	1060.221558
3838.562646	335.687927	-107.588547	1053.675659
3838.565988	342.818237	-99.230865	1048.473999
3838.569320	350.240784	-91.516075	1040.817749
3838.572652	357.604919	-83.216835	1034.330200
3838.577260	371.164246	-67.378143	1020.303345
3838.580612	377.476318	-59.780251	1013.173035
3838.583530	384.139099	-51.890129	1005.224426
3838.586898	390.568115	-44.409119	996.866699
3838.590195	395.945068	-37.220337	989.327271
3838.593574	402.490967	-30.382233	981.495605
3838.596431	407.400330	-22.959671	973.371704
3838.599782	412.894226	-15.946232	965.013977
3838.603067	418.388062	-9.166569	957.416077
3838.606402	423.940369	-2.679138	947.831055
3838.609745	428.148437	3.691408	938.772034
3838.613090	433.700745	10.529512	930.472778
3838.615976	438.201050	17.133839	921.706055
3838.619314	442.409119	23.153709	911.828735
3838.622643	446.967834	29.056690	902.652832
3838.625976	451.117493	35.719460	892.717102
3838.629312	455.267090	41.330215	882.430786
3838.632637	458.306274	46.765633	872.787231
3838.635976	462.163635	52.727058	862.676208
3838.639311	465.436584	57.519577	852.857361
3838.642667	468.008179	62.662766	842.804810
3838.645978	470.813538	67.981293	833.745728
3838.649305	473.618958	72.540039	823.926941
3838.652641	475.898315	77.157211	813.757446
3838.655994	477.593262	81.482178	804.055542
3838.659311	480.340149	86.508469	795.054932
3838.662640	482.093506	90.482758	786.638794
3838.665973	483.554626	94.924606	777.755066
3838.669306	484.665100	99.249565	767.702515
3838.672637	485.775574	103.165398	759.052612
3838.675970	487.119812	107.081238	749.759766
3838.679310	487.821167	110.997078	740.817627
